-0.040283	-0.027313	-0.023193
-0.040436	-0.026855	-0.020142
-0.038605	-0.027161	-0.022430
-0.038605	-0.027008	-0.023651
-0.039825	-0.025635	-0.022125
-0.040741	-0.025330	-0.020905
-0.037689	-0.025787	-0.021820
-0.038910	-0.028992	-0.025024
-0.038452	-0.026245	-0.021667
-0.039978	-0.025482	-0.021820
-0.038910	-0.026703	-0.021515
-0.039978	-0.026093	-0.023041
-0.036621	-0.028534	-0.021973
-0.040588	-0.025940	-0.021820
-0.037384	-0.025177	-0.020905
-0.040283	-0.024872	-0.022278
-0.038147	-0.030060	-0.022125
-0.039978	-0.026245	-0.020294
-0.040741	-0.026093	-0.023956
-0.038300	-0.027008	-0.022125
-0.039062	-0.028534	-0.023804
-0.038605	-0.025787	-0.022736
-0.038300	-0.025482	-0.022888
-0.038757	-0.026550	-0.021210
-0.039368	-0.027161	-0.023956
-0.039215	-0.028687	-0.021210
-0.037689	-0.025787	-0.021515
-0.041656	-0.027924	-0.022736
-0.038757	-0.026703	-0.023499
-0.040436	-0.027313	-0.022430
-0.037842	-0.027008	-0.023346
-0.040131	-0.027924	-0.022736
-0.040131	-0.027618	-0.021667
-0.038452	-0.026093	-0.023193
-0.037384	-0.026855	-0.022583
-0.038757	-0.026245	-0.022430
-0.041199	-0.026550	-0.024109
-0.036621	-0.028229	-0.021820
-0.039825	-0.026093	-0.024567
-0.036926	-0.025482	-0.022583
-0.039520	-0.025787	-0.023346
-0.037689	-0.029602	-0.021515
-0.042267	-0.026245	-0.024109
-0.037384	-0.028381	-0.023041
-0.038605	-0.026093	-0.022278
-0.039215	-0.028076	-0.022888
-0.040741	-0.026703	-0.022430
-0.037689	-0.025787	-0.022583
-0.038300	-0.025330	-0.020905
-0.038300	-0.027008	-0.021820
-0.040588	-0.027466	-0.021820
-0.038910	-0.026398	-0.023346
-0.037384	-0.026855	-0.022125
-0.038910	-0.026855	-0.021362
-0.040741	-0.027618	-0.021057
-0.041199	-0.028076	-0.023804
-0.036774	-0.026550	-0.022125
-0.039368	-0.026245	-0.023956
-0.039825	-0.027008	-0.022583
-0.040131	-0.027466	-0.022736
-0.038757	-0.026398	-0.023651
-0.037384	-0.025635	-0.022736
-0.037689	-0.026703	-0.019684
-0.037994	-0.025787	-0.020905
-0.040283	-0.027924	-0.023956
-0.037384	-0.024567	-0.022888
-0.038605	-0.026245	-0.021820
-0.040131	-0.026245	-0.021057
-0.038300	-0.027618	-0.022430
-0.038605	-0.026703	-0.024872
-0.037994	-0.026855	-0.020599
-0.039825	-0.026703	-0.021362
-0.040283	-0.027161	-0.021515
-0.039673	-0.027161	-0.024261
-0.037384	-0.025787	-0.022278
-0.038910	-0.025330	-0.021820
-0.040436	-0.027618	-0.021973
-0.039978	-0.026550	-0.022888
-0.038300	-0.026245	-0.021973
-0.039062	-0.026245	-0.022430
-0.038452	-0.026550	-0.020905
-0.038452	-0.026855	-0.021057
-0.039673	-0.027618	-0.023193
-0.037231	-0.026855	-0.022125
-0.040283	-0.028076	-0.024567
-0.039673	-0.028534	-0.023804
-0.038452	-0.025482	-0.021973
-0.038605	-0.026855	-0.022125
-0.039825	-0.024719	-0.022125
-0.037994	-0.026550	-0.022736
-0.039520	-0.025024	-0.022125
-0.039520	-0.028839	-0.022736
-0.039062	-0.026093	-0.023346
-0.038452	-0.027008	-0.022125
-0.038605	-0.027008	-0.022888
-0.039673	-0.027618	-0.022736
-0.038605	-0.025635	-0.022278
-0.037231	-0.025787	-0.021057
-0.039673	-0.027008	-0.021362
-0.039825	-0.027618	-0.021515
-0.038452	-0.025482	-0.022125
-0.038147	-0.026703	-0.022125
-0.041656	-0.027008	-0.024567
-0.040894	-0.027161	-0.020447
-0.038757	-0.027008	-0.022278
-0.037079	-0.024719	-0.022125
-0.039520	-0.025482	-0.022278
-0.037384	-0.025177	-0.019684
-0.038147	-0.025940	-0.021362
-0.038605	-0.027161	-0.023041
-0.039062	-0.026245	-0.023651
-0.039062	-0.027161	-0.022125
-0.039062	-0.028839	-0.020905
-0.039520	-0.028076	-0.023651
-0.038452	-0.026398	-0.023651
-0.041809	-0.027466	-0.022888
-0.037689	-0.028381	-0.020905
-0.040131	-0.027008	-0.022125
-0.037689	-0.028839	-0.024567
-0.040131	-0.024872	-0.022736
-0.038910	-0.029297	-0.022430
-0.041046	-0.027161	-0.022888
-0.038300	-0.027466	-0.024261
-0.037079	-0.024719	-0.021820
-0.040283	-0.027466	-0.021362
-0.040436	-0.027161	-0.021210
-0.039062	-0.026550	-0.023041
-0.037231	-0.026245	-0.022583
-0.038910	-0.025635	-0.021820
-0.041199	-0.028229	-0.022125
-0.038910	-0.026093	-0.021515
-0.039825	-0.028534	-0.024567
-0.037994	-0.024567	-0.022125
-0.039368	-0.028229	-0.021667
-0.039825	-0.027618	-0.020905
-0.040588	-0.027008	-0.023193
-0.038452	-0.025330	-0.021973
-0.038757	-0.026550	-0.023346
-0.039825	-0.024872	-0.021210
-0.037842	-0.027618	-0.024567
-0.038910	-0.026550	-0.023193
-0.039673	-0.028229	-0.022430
-0.040588	-0.027771	-0.022736
-0.042419	-0.030060	-0.023651
-0.041046	-0.028381	-0.024414
-0.039368	-0.028381	-0.020447
-0.042572	-0.027618	-0.023041
-0.038910	-0.027618	-0.023956
-0.041351	-0.027924	-0.023804
-0.037689	-0.029907	-0.024261
-0.041046	-0.023804	-0.021210
-0.040131	-0.028992	-0.022430
-0.041046	-0.027466	-0.022278
-0.039368	-0.027924	-0.022583
-0.041199	-0.026703	-0.022430
-0.039978	-0.026550	-0.024719
-0.231628	-0.055695	-0.026093
1.172333	-0.112000	-0.018158
0.662689	2.020569	1.004791
-1.977844	-1.851196	-1.061401
0.359497	0.354004	-0.198364
0.026550	0.298920	0.067749
0.398865	0.852356	-0.135651
-0.026855	0.511780	0.787201
-0.342407	-0.157776	0.796509
-0.019531	0.024414	1.632843
0.345612	-0.813904	1.534424
0.463104	-1.188354	1.077118
0.301666	-0.763855	0.412445
0.677185	0.110168	0.813599
-0.200500	0.137024	0.595856
-0.444336	0.474396	-0.447845
-0.957031	0.536194	-0.819855
0.810394	0.563812	0.378265
1.465912	-0.169830	0.386200
-0.781708	-1.194916	-1.409302
-0.305481	1.382294	0.054932
1.346283	0.838165	0.141907
-0.928345	-0.851746	-0.154266
0.386810	1.151581	0.000610
-0.457611	-1.754761	-0.607452
-0.102386	0.147552	0.245514
-0.059052	-0.929413	-1.046600
0.025940	0.318604	0.947723
-0.354767	-1.066437	-1.741028
-0.527649	-0.046997	0.030365
-1.280212	-0.280151	0.045013
-0.842896	-1.157990	-1.304779
-0.097809	-0.437775	0.486450
-0.055389	-0.172729	0.098724
-0.086365	-0.992432	-0.633087
-0.922699	-1.202545	-0.282288
-0.183716	1.137848	-0.303497
0.173035	1.149597	-0.069885
0.740509	-0.232544	0.595245
-0.530090	-0.664062	0.363770
-0.016479	-0.175781	0.423126
-0.677643	0.145569	-0.594177
-0.302887	-0.070496	0.063171
0.585022	0.210724	0.439758
-2.015228	-0.877991	-0.307007
-0.093842	-0.345917	0.232239
-0.564880	-0.001526	-0.619049
0.163879	0.435486	0.229950
-0.200500	-0.261536	-0.208893
-0.239868	1.262207	0.829773
-0.336761	-0.156097	0.004272
-0.373993	0.190735	-0.260468
-0.323639	-0.405121	-0.660095
-1.100159	-0.638885	-0.126190
-0.590057	-0.671387	-0.233307
0.087433	-0.679169	-1.156006
-0.332794	-0.617065	-0.936890
0.668488	-0.322113	-0.170441
0.570068	0.173340	1.302032
0.506439	-0.655212	0.874939
0.095978	0.395508	0.376892
0.283661	0.559235	0.494232
0.648956	0.892639	0.270844
-0.224915	-0.333557	-0.212402
-0.220642	-0.277710	-0.193176
-0.204163	-0.182648	-0.384369
0.054169	-0.174103	0.765991
-0.016937	-0.395050	-0.167542
0.011292	0.225372	0.870667
0.219574	0.223389	-0.216980
-0.294800	-0.315857	-0.133820
0.048981	0.043488	0.087433
-0.258026	-0.259094	-0.070801
-0.127258	0.080261	0.238800
0.798645	-0.119629	0.059357
-0.306091	-0.002747	0.175171
0.155945	-0.145416	0.149994
1.469879	1.325226	0.411987
0.045166	-0.813751	-0.135040
-1.832123	-0.322266	-0.244598
-0.393066	-1.012573	-0.598145
-0.158234	-0.296936	-0.760956
0.242004	0.131226	-0.159149
-0.130768	0.318604	-0.528259
-0.039825	-0.445709	-0.478516
0.251465	-0.138702	-0.438843
-0.198975	1.970673	0.946503
0.962372	0.986786	0.457153
-0.835876	0.289154	-0.369873
2.315063	1.614075	0.686493
-1.306305	-1.303864	-1.026611
0.297546	-1.614532	-1.100769
0.650635	1.237335	0.673676
-1.597900	-0.070648	-0.526581
-0.761261	-0.987854	-2.336731
1.378326	2.139130	-0.964355
-0.608063	-0.989380	-0.407257
0.845184	-0.169678	-0.426941
-0.788727	0.389099	-1.213989
0.168762	0.682831	1.057892
0.063477	-0.413055	-0.279846
-0.389252	0.098114	0.784454
0.734100	-1.063690	-0.907745
0.026550	0.388336	-0.272980
0.361481	0.240631	1.091614
0.242920	-0.608063	-1.275024
0.061188	-0.002899	0.459290
-0.778809	-1.153259	-1.232300
-0.201874	-0.571136	0.045319
0.315094	-0.018768	-0.706940
-0.172119	-0.543671	0.123291
-0.595551	-0.171356	-1.194763
-0.242157	-0.212708	-0.329895
-0.031891	0.276947	0.884552
-0.161591	1.111603	-0.120087
0.277863	0.830841	-0.164032
-0.102081	0.922699	-0.274811
0.013733	0.438385	0.450134
-0.559845	-0.764313	0.077515
0.058136	-0.009003	0.225983
-0.720978	-0.782623	-0.814056
-0.044556	0.368500	0.116119
-0.410004	-0.446014	-0.475922
-0.240021	0.133972	-0.210724
-0.262146	0.029907	-0.349121
-0.404053	-0.375366	0.740662
-0.150909	-0.080872	0.866852
0.284576	-0.020905	-0.062103
-0.190735	-0.327148	-0.126343
-0.003357	0.101929	-0.167694
0.034180	-0.107574	0.249634
-0.176086	0.072327	-0.405884
-0.062408	-0.068359	0.051270
-0.053864	0.019531	0.224762
-0.062408	-0.201263	-0.318604
-0.044250	0.169678	-0.623169
-0.062561	-0.124969	-0.040894
1.070557	0.930634	0.076141
-0.074768	-0.108948	-0.446625
-0.085754	-0.058746	0.297241
-1.100006	-0.590973	-0.333252
0.772552	0.685425	0.123444
-0.015411	-0.037689	-0.128479
-0.086212	-0.194092	-0.119781
1.094055	0.949402	1.032715
-0.341797	-0.399933	-0.586853
-0.675659	-0.777893	-1.065674
-0.162964	-1.136017	0.413513
0.090485	0.084534	-0.043945
-1.207428	-0.791931	-0.784912
-1.753845	-0.141602	0.405121
-0.513611	-1.042175	-0.179901
0.181732	-0.101166	-0.863495
3.127441	3.504486	2.828369
-0.643768	-0.170898	-0.698853
-1.401672	0.371094	1.322784
0.980835	-3.677063	0.606995
-1.095428	-0.075684	0.156403
-0.843201	-0.377502	-0.501099
0.185547	0.637207	-1.882782
-0.180511	1.285095	0.590210
-0.646515	0.789490	0.329132
-3.671417	-0.284424	-0.380554
-0.301666	-0.339050	-0.196838
2.083893	3.083038	2.796173
-0.444031	0.350189	0.100403
-0.510254	-1.138458	0.487518
0.300293	-2.465363	0.913086
-0.331268	-2.013397	-3.088989
0.495605	-2.880859	-0.051422
-1.567383	-4.073944	-1.297760
1.695404	1.132812	1.519165
1.057892	-1.286621	2.093506
3.485260	3.642426	3.660583
0.208130	1.125793	0.221252
3.846283	3.530426	1.819763
4.296722	1.391144	1.890106
1.282654	0.972748	0.260468
0.488739	-1.285553	3.033600
0.471802	1.225891	1.010132
0.781403	-0.432129	-1.593628
1.522064	-0.015411	-0.027008
1.097870	0.109253	0.901337
-1.750946	-0.192566	0.883942
1.940308	-1.668549	0.313721
2.662964	3.684540	2.578430
3.507233	0.782776	2.288971
0.522156	0.449219	0.241852
3.706360	-0.736084	1.703491
-0.437164	3.205566	1.797638
1.519165	1.505280	1.933289
-1.849823	-0.938110	-2.414703
-3.358765	-4.029694	-0.421295
-1.451263	-1.011505	1.163940
0.334015	-0.427399	-0.252838
-0.742340	-1.405334	-0.086517
1.595001	-0.605469	2.181244
-1.537933	-2.863007	-0.779572
0.936584	1.615906	2.401581
-2.564392	-0.699768	1.824341
-0.650787	-0.317841	2.413788
0.736694	-2.690125	2.379608
2.482910	-1.969910	-0.130157
2.083435	1.722870	-0.667572
3.207550	1.227570	3.247528
1.766815	-1.656799	1.050568
2.206268	-0.170441	0.940094
-2.987061	-0.213928	-0.671539
-1.233063	0.196075	2.154083
-0.640411	-0.759277	1.024780
-0.382843	-1.192780	1.780853
0.386810	2.370453	3.272705
0.966797	0.886383	-0.874939
0.621948	-0.485840	-0.633087
1.321411	1.112061	3.469086
0.552216	2.515564	3.884125
-0.718842	0.773621	3.208923
1.150665	3.871613	2.654724
-2.187500	0.933990	-0.142670
-3.433228	-0.019989	-0.208435
-0.637360	-1.394806	-1.310425
-0.103760	0.215607	0.149231
-0.932312	1.782684	1.402588
3.214722	3.894958	0.318756
1.434326	3.745422	0.164642
1.589203	0.243683	1.318207
1.416931	0.964355	2.230835
0.142822	2.939301	-0.639648
1.386566	0.067749	1.778107
-0.570374	3.572540	2.578278
3.394928	-0.509491	1.613617
2.291412	0.303497	0.338593
2.487793	3.540802	3.970795
1.203156	-1.501617	-1.735229
2.245941	0.625000	-0.030975
1.624908	-0.957336	2.925262
3.637695	-0.023499	2.050629
0.473633	1.818237	2.685547
-0.700073	-0.752716	1.290436
0.123901	-0.389099	1.590729
0.214844	0.116882	2.458496
-0.192719	-0.461578	2.125092
0.150909	-0.331573	-0.079346
-0.105591	-0.313110	1.719208
-0.219116	0.175018	3.977966
0.472565	0.378876	1.808624
0.082245	0.609589	1.236725
0.431366	0.282593	-1.166229
0.480804	0.597534	1.356506
0.245667	0.113373	0.610657
0.090332	0.033417	0.786133
0.435638	0.138245	2.080231
-0.064545	-0.594330	-0.225525
-0.191193	0.163727	2.023315
0.013580	0.170441	0.112152
-0.206146	-0.111389	-0.254669
0.394745	0.005493	-0.631866
0.303650	0.028992	1.711273
-0.376740	0.154419	3.193970
0.498505	-0.142975	0.389099
0.088348	-0.256500	-0.942383
0.426788	0.449371	-0.492096
-0.196075	-0.008850	-0.334473
0.446472	-0.438843	-1.222839
0.130463	-0.200043	-0.746460
0.234375	0.262146	-0.611877
0.167999	-0.420685	-0.444183
-0.095978	0.072479	-0.599518
0.765533	0.140839	-1.165924
-0.279083	-0.402527	-0.653839
0.132446	0.046387	-1.000519
-0.093689	0.250397	-0.501251
0.117798	-0.346527	-0.701447
0.049896	-0.068817	-1.016083
-0.004883	0.071259	-0.854645
-0.008240	-0.191193	-0.480652
-0.265045	-0.094757	-0.823059
-0.311737	-0.105591	-0.885010
-0.339050	-0.501862	-0.524445
-0.296021	0.145874	-1.203003
-0.091553	-0.605164	-0.914917
0.220490	0.150146	-0.496521
0.155945	-0.118866	-0.535278
-0.080566	-0.223541	-0.878906
-0.140076	-0.042419	-0.867462
-0.015411	-0.199432	-1.036530
0.147705	-0.148926	-1.099396
-0.727081	-0.444794	-0.912323
0.273743	-0.261688	-0.669708
-0.525208	0.123291	-0.790100
-0.220490	-0.493011	-0.875397
-0.212402	-0.274658	-0.987244
-0.744781	-0.434113	-1.082001
-0.435791	-0.588531	-0.662079
-0.181427	0.063934	-0.667267
-0.343323	-0.583801	-1.179352
-0.325775	-0.342560	-0.838165
-0.351868	-0.047455	-0.596619
0.255890	-0.245056	-0.799713
-0.151978	-0.186920	-0.877533
-0.698853	-0.809479	-0.942230
0.049896	-0.342407	-0.554352
0.024414	-0.331573	-0.651093
-0.154724	0.060577	-0.782776
0.082092	0.059204	-0.704498
0.036621	-0.727234	-1.343842
-0.053406	-0.632324	-0.762634
-0.061798	-0.739594	-0.975037
0.217133	0.041656	-0.423279
0.509491	-0.535736	-0.490570
0.729675	0.265045	-0.706482
0.777588	-0.176544	-0.385590
0.587311	-0.153046	-0.713501
0.180206	0.077820	-0.846100
0.022430	-0.231476	-1.000824
0.126190	-0.079193	-1.064911
0.693817	-0.013275	-0.917053
0.801697	-0.367737	-0.814514
0.435333	0.200195	-0.724640
0.096893	0.204315	-0.475311
-0.073700	-0.280762	-0.308075
-0.145721	0.089111	-0.341644
-0.405579	0.144043	-0.698547
-0.384827	-0.526886	-0.749054
-0.429840	-0.547791	-0.899811
-0.773010	-0.501862	-1.038208
-1.053925	-0.413055	-1.067352
-0.549469	-0.724182	-1.442566
-0.013123	-0.454559	-1.190491
-0.225220	-0.099030	-0.524750
-0.423889	0.110626	-0.517120
-0.381165	-0.288849	-0.769043
-0.267181	-0.764008	-1.530151
0.176849	-0.541992	-1.211700
0.284882	-0.342255	-0.520935
-0.509033	-0.606232	-0.614624
-0.016327	-0.768738	-1.372986
0.119324	-0.274963	-1.281738
0.346222	0.319061	-0.364380
0.224152	-0.206757	-0.967712
-0.675964	-0.510101	-1.442108
0.934906	-0.017242	-0.701752
-0.436249	-0.556793	-0.872192
-0.202179	-1.068726	-1.507416
0.490723	-0.335388	-0.636749
-0.526733	-0.852509	-0.922241
0.254974	-1.049347	-1.445007
0.178528	-0.276031	-0.470886
-0.254669	-1.042938	-1.451569
1.080322	-0.390167	-1.006927
0.352631	-0.692139	-0.802460
-0.213928	-0.601196	-1.628113
0.066833	-0.009003	-0.460510
0.358734	-0.414581	-1.503143
0.475464	0.447388	-0.547638
-0.717773	-0.436401	-1.556702
0.791931	0.153961	-0.510559
-0.846863	-0.937042	-1.250458
0.550079	-0.381622	-0.795898
-0.698853	-1.183472	-1.458740
0.251160	-0.498962	-0.820618
-0.227509	-0.493622	-1.313171
-0.973511	-0.207672	-1.123962
-0.054779	0.274353	-0.879364
-0.363922	-0.733185	-1.535187
0.144653	-0.334473	-0.573730
0.145569	-1.056976	-1.582184
-0.359955	-0.578613	-0.665741
0.508728	0.489502	-1.004944
0.001373	-0.594940	-1.394196
0.288086	-0.899200	-0.821228
0.529175	-0.286102	-0.876007
-0.881500	-0.278778	-1.594086
-0.268860	-0.544281	-1.167755
0.080872	-0.427094	-0.637665
-0.459900	-0.308228	-1.455383
-1.184692	-0.429535	-1.256409
-0.957794	-0.800323	-1.112518
-0.276947	-0.175934	-0.584717
0.094910	0.075073	-1.089325
-1.008301	-1.047058	-1.774139
-0.148773	-1.065826	-1.290894
-0.172272	0.145569	-0.498352
0.218201	-0.358734	-0.591888
0.338593	-0.341949	-1.201782
0.025635	-0.264282	-1.227570
-0.286255	-1.324921	-1.343079
-0.879822	-0.348358	-1.559143
-0.558472	-0.822144	-1.280212
-0.771027	-0.102997	-0.802155
-0.036469	-0.431824	-0.842896
-0.130615	0.416107	-0.984497
-0.163116	-0.520020	-0.740814
-0.023804	0.441437	-0.708771
0.209351	-0.278931	-1.129150
0.478973	-0.333099	-1.285095
0.833130	0.392761	-0.995026
0.371704	-0.178833	-0.903778
0.758362	-0.586395	-0.959778
0.921173	-0.055237	-1.069336
0.945892	0.411072	-1.201630
0.646515	0.577240	-1.120453
0.786896	0.422668	-0.991516
-0.029602	0.169983	-0.598602
-0.526428	-0.174408	-0.736389
-0.603943	-0.278778	-0.941620
-0.727997	-0.134888	-1.383057
-0.886078	0.094757	-1.705627
-1.220398	0.291290	-1.672363
-0.006561	0.648041	-1.458893
0.216370	1.038361	-1.109467
0.156250	0.992279	-1.073303
0.093842	1.063538	-1.008148
-0.160980	1.348877	-1.263733
-0.080414	1.675873	-0.924988
0.924377	2.769318	-0.603638
0.693817	1.892090	-0.915375
0.392151	2.699738	-1.246033
0.662231	2.597961	-1.139679
0.661163	2.462616	-0.820160
0.031281	1.892090	-1.111603
-0.158081	1.741333	-1.278687
0.104828	2.172852	-0.808105
-0.961456	1.887970	-1.319580
-0.825348	1.898041	-1.551971
0.057526	2.379608	-1.224670
-0.276794	0.800781	-1.640167
-0.003815	0.946655	-1.506653
-0.110931	1.284485	-1.239014
-0.429077	0.589752	-0.995636
-0.488281	0.438843	-0.667725
-0.594635	-0.076294	-1.448975
0.204773	0.354462	-1.299896
-0.313568	-0.278320	-1.600800
-0.236664	0.171509	-0.957336
-0.388336	-0.709381	-1.004028
0.160828	-0.216827	-1.143188
-0.516663	-0.555878	-1.764984
-0.041809	0.181274	-1.239319
-0.523529	-0.336914	-1.465912
-0.344391	-0.258789	-0.936890
-0.047302	-0.570374	-1.231689
0.191956	-1.368561	-1.613922
0.223541	-0.825043	-1.351929
0.197906	-1.761932	-1.073151
0.829315	-1.406403	-1.316071
0.481415	-1.286163	-1.591644
0.279083	-1.306915	-0.968628
0.181427	-1.331329	-1.112213
-0.463715	-1.543274	-1.579590
-0.693359	-1.561127	-0.872650
-1.246185	-1.652222	-1.533813
-1.008301	-1.670380	-1.351166
-0.749664	-1.690826	-1.149445
0.173492	-1.258087	-1.718140
1.442413	-1.004028	-0.831299
1.650848	-1.376495	-1.375732
2.014313	-1.451111	-1.578064
2.527161	-0.979767	-0.971832
1.802979	-1.020050	-1.693573
2.071686	-1.207275	-0.790253
1.135712	-0.728302	-1.577148
0.373840	-0.619202	-1.269073
-0.270538	-0.691528	-1.349945
-0.891266	-0.438843	-1.430206
-1.913605	-0.454407	-1.200867
-2.159119	-0.800629	-1.548920
-2.486267	-0.148621	-1.144409
-2.436066	-0.466461	-1.579895
-2.188873	-0.279083	-1.178131
-2.296753	-0.239258	-1.472931
-2.078705	-0.264130	-1.254120
-1.663971	-0.242004	-1.207886
-1.539154	-0.152130	-1.646423
-1.715393	-0.225830	-0.915375
-0.821228	-0.195923	-1.321564
-0.654602	-0.459290	-1.589203
-0.154114	-0.205383	-1.012573
0.391083	-0.166779	-0.969086
0.633392	-0.181885	-1.592102
1.534271	-0.117340	-1.505432
1.003265	-0.128937	-0.926819
1.785889	-0.187683	-1.113892
2.003632	-0.173645	-1.608429
1.955719	-0.145264	-1.571960
1.758118	-0.046539	-0.959320
1.300964	-0.133514	-1.216278
1.242523	-0.149384	-1.766052
0.305328	-0.145264	-1.362457
0.084534	-0.204620	-1.059570
0.298462	-0.118256	-1.688538
0.949402	-0.095673	-1.272430
1.464691	-0.094910	-0.971527
1.294556	-0.089569	-1.597137
0.740204	-0.048981	-1.199188
-0.006866	-0.067902	-0.936890
-0.668182	-0.066681	-1.608734
-0.979919	-0.056915	-1.025543
-1.720276	0.015869	-0.885773
-2.063599	0.007324	-1.396027
-1.784973	-0.003815	-1.384430
-1.550598	-0.047302	-0.982971
-0.837555	-0.050659	-0.728607
0.033569	-0.016632	-0.610352
0.406647	-0.017853	-0.623932
0.459290	-0.011139	-0.751190
0.754395	0.005493	-1.032867
0.490570	0.026550	-0.694427
-0.420532	0.058289	-0.539703
-1.045532	-0.013428	-0.529633
-1.839752	0.084381	-0.465851
-1.528625	0.114288	-0.403748
-1.163330	0.429230	-0.440063
-0.046844	0.116119	-0.383148
1.326752	-0.043640	-0.362091
0.727539	-0.135956	-0.536652
1.526031	0.119629	-0.529633
0.795441	-0.055847	-0.303955
1.277313	0.204926	-0.266571
0.356445	0.192566	-0.174561
-0.289001	0.069427	-0.265656
-0.480347	0.169830	-0.509033
-0.445404	0.244293	-0.293121
-0.093536	0.222321	-0.113068
0.413361	0.158997	-0.252075
0.377197	0.246735	-0.373993
0.007172	0.441437	-0.220032
-0.688629	0.266876	-0.059967
-1.875610	0.111084	-0.188599
-2.254791	0.328369	-0.151672
-1.678467	0.348053	-0.256348
-0.251312	0.350647	-0.086365
0.228882	0.688324	-0.025330
0.034943	0.240326	-0.005951
-0.179138	0.347595	0.036316
-0.296783	0.356903	0.309601
-0.348969	0.435028	0.127106
-0.486298	0.316467	0.195312
0.151978	0.139008	0.183868
0.564117	0.798340	0.446625
1.037903	0.181122	0.382843
1.877136	0.849762	0.432587
2.164917	0.170288	0.461731
0.102844	0.851898	0.500183
-1.442719	0.227661	0.482941
-1.354370	0.537872	0.967407
-1.434479	0.599823	0.516205
-0.651703	0.489044	0.546570
-0.583496	0.860443	1.042175
-0.620422	0.292053	0.789948
-0.488281	0.512390	0.466614
-0.102234	0.676117	0.536957
-0.037384	0.298767	0.720673
-0.302582	0.546112	0.919037
-0.253754	0.768280	1.134033
0.559387	0.379639	1.293030
1.375580	0.514526	1.139374
1.979980	1.006165	0.908813
2.245331	0.682526	0.919189
1.493378	0.375519	1.068726
0.670624	0.627136	1.213684
-0.642395	1.046295	1.162262
-0.986481	0.794525	0.882874
-1.972046	0.479584	0.616608
-2.399902	0.458374	0.567474
-2.143402	0.621948	0.619354
-1.416626	1.015778	0.844574
-0.018921	1.158142	1.196899
1.190186	0.946045	1.652985
0.660553	0.737152	1.279907
0.806274	0.796661	1.038513
0.292053	0.779266	1.231842
-0.640869	0.780945	1.215210
-1.065216	0.812683	1.200714
-1.030273	0.790253	1.144104
-0.459595	0.825958	1.187134
0.381927	0.800323	1.213837
1.024933	0.818024	1.195831
1.422882	0.830078	1.207581
1.116180	0.876160	1.257324
0.526276	0.878754	1.268616
-0.423737	0.841980	1.281433
-0.386353	0.859985	1.319427
-0.107422	0.879517	1.275330
0.073547	0.915985	1.270752
-0.009613	0.923157	1.294403
-0.297089	0.902100	1.378174
-0.890198	0.897369	1.413116
-1.047211	0.862427	1.349640
-0.884857	0.893250	1.406403
-0.754700	0.885925	1.394958
-0.495148	0.896759	1.412201
-0.637970	0.911255	1.357422
-0.749664	0.923462	1.328278
-0.335846	0.932465	1.330109
0.151520	0.972900	1.372223
0.509338	0.971680	1.390381
1.385956	0.948334	1.362610
1.971436	0.937653	1.397400
1.492462	0.967255	1.412811
0.149536	0.979614	1.467285
-1.101379	0.974426	1.443329
-1.092834	0.986481	1.418304
-0.391998	0.963898	1.404724
0.622864	0.959930	1.419983
1.450043	0.955963	1.400146
1.634216	0.978088	1.401367
1.048126	0.977631	1.365967
-0.554047	0.983887	1.363220
-1.763153	0.982208	1.334381
-2.403870	1.001587	1.365051
-2.352448	0.989380	1.363831
-1.916962	1.027527	1.400757
-0.563354	1.002197	1.389618
-0.014496	1.007233	1.423645
-0.268250	1.002502	1.440125
-0.309143	0.998230	1.450043
-0.052795	0.991821	1.432343
0.561829	1.017609	1.438904
1.186523	0.982513	1.430969
1.406860	1.000519	1.484070
1.891937	0.990753	1.486511
1.832733	1.000519	1.486206
0.691071	1.012421	1.500244
-0.380554	0.989990	1.490631
-1.094360	1.019897	1.482849
-1.495514	0.999756	1.450500
-1.007843	1.005554	1.448975
0.299072	1.011047	1.417694
0.937500	1.040192	1.433563
-0.081177	1.026001	1.400299
-1.455078	1.014252	1.384888
-1.803284	0.990753	1.371307
-1.128693	0.996246	1.412354
-0.427094	1.011505	1.421356
0.079346	1.003418	1.416626
0.241394	0.962067	1.424408
0.207825	0.941925	1.412964
0.054016	0.920868	1.361694
0.201569	0.905151	1.320648
0.446777	0.893250	1.262054
0.798492	0.886078	1.262207
0.581055	0.891418	1.236115
0.449524	0.853577	1.220856
1.153564	0.854645	1.224518
1.326141	0.854034	1.254730
0.383759	0.855560	1.236267
-0.536041	0.829315	1.203461
-1.311188	0.816193	1.190338
-1.961823	0.799408	1.157837
-2.067108	0.763245	1.142120
-1.589050	0.751343	1.140289
-0.574036	0.724792	1.143646
0.408936	0.713654	1.136932
0.811310	0.665588	1.094666
0.372314	0.642548	1.043549
-0.089417	0.609131	1.008911
0.036163	0.595245	0.997467
0.171204	0.570526	1.002197
0.533905	0.534973	0.989075
0.407257	0.530396	0.990753
-0.205688	0.525970	0.968933
-0.325317	0.519562	0.964966
0.216217	0.495453	0.942993
0.499725	0.450592	0.921021
0.899658	0.400848	0.887756
1.358795	0.390320	0.884857
1.185608	0.374603	0.854340
0.223389	0.334473	0.820770
-0.709686	0.285950	0.808105
-1.595459	0.279236	0.804138
-1.907043	0.239258	0.778656
-1.445007	0.198822	0.757294
-0.441284	0.207367	0.735321
0.269928	0.174103	0.697479
0.783844	0.131073	0.668488
0.343475	0.124512	0.660858
-0.999908	0.116882	0.622101
-1.936340	0.088043	0.608978
-1.242981	0.104218	0.617371
0.372009	0.079193	0.599060
1.366425	0.049896	0.578461
1.998138	0.013123	0.543671
1.565247	-0.011902	0.531769
0.834045	-0.019836	0.511780
0.057983	-0.042114	0.504303
-0.498962	-0.072937	0.523834
-0.519409	-0.108490	0.512238
-0.201416	-0.131226	0.488739
0.265350	-0.123138	0.461578
0.211945	-0.135956	0.460968
-0.606842	-0.134888	0.427246
-1.244202	-0.151978	0.420685
-1.509552	-0.177612	0.367584
-2.053986	-0.152130	0.365143
-1.762390	-0.178375	0.337982
-0.700378	-0.164032	0.350494
0.645905	-0.191193	0.332794
0.846405	-0.204010	0.313263
0.034637	-0.217438	0.313110
-0.332336	-0.225220	0.283356
0.190582	-0.226593	0.243378
0.873566	-0.232239	0.242310
1.706848	-0.274200	0.229034
2.214203	-0.283813	0.192413
1.450500	-0.279694	0.145569
0.139618	-0.275116	0.145721
-0.929718	-0.270081	0.124664
-0.690002	-0.286865	0.116882
0.099640	-0.296173	0.091248
0.429230	-0.293579	0.064392
0.353851	-0.269470	0.021515
0.115814	-0.258636	0.001526
-0.047302	-0.257721	-0.051575
-0.020905	-0.270081	-0.090332
-0.176086	-0.268097	-0.120544
-0.674591	-0.284882	-0.155945
-1.500092	-0.278473	-0.196838
-1.873932	-0.290833	-0.224609
-1.522980	-0.325775	-0.268097
-1.408386	-0.329132	-0.283966
-1.594391	-0.359650	-0.318298
-1.329193	-0.346527	-0.374298
-0.524139	-0.359344	-0.417175
0.790558	-0.343933	-0.473175
1.609955	-0.337677	-0.528717
1.391754	-0.343170	-0.572968
0.371857	-0.328217	-0.599670
-0.617676	-0.314484	-0.619659
-0.878143	-0.296631	-0.611877
-0.594788	-0.316010	-0.605011
-0.041046	-0.335693	-0.598297
0.662079	-0.333099	-0.548096
1.398621	-0.332184	-0.505676
1.971588	-0.335236	-0.463104
2.124329	-0.341492	-0.403137
1.766968	-0.341034	-0.321960
0.987396	-0.356293	-0.268860
-0.031433	-0.354614	-0.246582
-0.913849	-0.375977	-0.195160
-1.492920	-0.371552	-0.181732
-1.522217	-0.368652	-0.168152
-1.207428	-0.352020	-0.178833
-0.865479	-0.360260	-0.198212
-0.734558	-0.338287	-0.220490
-0.530243	-0.319977	-0.218201
-0.135345	-0.298920	-0.226593
0.166779	-0.322723	-0.255585
0.433044	-0.331879	-0.265045
0.597992	-0.352936	-0.271606
0.679016	-0.328979	-0.272675
0.848389	-0.288391	-0.246277
0.766602	-0.319366	-0.222321
0.378265	-0.333252	-0.180664
-0.156860	-0.371857	-0.215302
-0.778656	-0.368652	-0.222168
-1.370850	-0.321960	-0.212402
-1.783752	-0.323029	-0.201874
-1.898804	-0.360718	-0.222015
-1.737518	-0.355988	-0.222473
-1.451263	-0.352631	-0.217590
-1.038055	-0.323944	-0.207672
-0.397034	-0.288849	-0.176849
0.357208	-0.304871	-0.185699
0.954132	-0.323944	-0.227051
1.282806	-0.310669	-0.208588
1.342926	-0.301056	-0.236664
1.157379	-0.323334	-0.248718
0.854950	-0.313721	-0.264740
0.510406	-0.321960	-0.290070
0.235748	-0.334320	-0.303192
-0.059357	-0.346069	-0.338135
-0.261230	-0.343323	-0.316467
-0.281525	-0.333862	-0.305786
-0.238342	-0.329895	-0.303345
-0.184326	-0.323029	-0.314789
-0.204468	-0.317078	-0.335846
-0.380554	-0.291901	-0.376129
-0.666199	-0.281067	-0.385284
-0.893402	-0.278778	-0.405884
-0.890656	-0.301971	-0.442810
-0.690155	-0.323334	-0.466919
-0.525208	-0.310211	-0.486145
-0.392151	-0.295563	-0.490875
-0.291748	-0.287018	-0.512848
-0.137329	-0.289154	-0.515289
0.022583	-0.308838	-0.527496
0.227814	-0.313568	-0.531311
0.401917	-0.332642	-0.552063
0.581818	-0.300751	-0.590973
0.783081	-0.290985	-0.609741
0.863953	-0.315704	-0.634918
0.827942	-0.319977	-0.666656
0.760040	-0.306396	-0.659790
0.778961	-0.288086	-0.669556
0.733795	-0.270538	-0.690308
0.548706	-0.251617	-0.688171
0.247803	-0.277252	-0.689697
-0.105591	-0.283966	-0.712433
-0.478363	-0.299072	-0.747681
-0.801849	-0.282593	-0.716858
-1.047058	-0.273437	-0.738068
-1.175232	-0.270691	-0.749207
-1.198578	-0.287323	-0.773773
-1.146851	-0.322418	-0.806122
-1.039429	-0.316925	-0.780182
-0.854340	-0.301514	-0.791168
-0.517273	-0.302277	-0.805969
-0.169525	-0.291901	-0.817719
0.052643	-0.315552	-0.840607
0.182343	-0.304108	-0.866547
0.243378	-0.294800	-0.892334
0.334473	-0.286560	-0.877380
0.429687	-0.274506	-0.917969
0.453796	-0.288544	-0.899658
0.424042	-0.289917	-0.899658
0.395508	-0.287628	-0.886688
0.345306	-0.273285	-0.889435
0.178986	-0.256500	-0.887909
-0.172272	-0.284576	-0.889740
-0.665741	-0.307159	-0.897675
-1.117706	-0.278168	-0.918427
-1.364136	-0.249786	-0.909729
-1.417999	-0.252075	-0.928650
-1.198883	-0.226898	-0.931702
-0.909119	-0.231934	-0.937805
-0.595551	-0.216522	-0.938721
-0.267944	-0.207825	-0.942078
0.159454	-0.167694	-0.959625
0.601654	-0.147858	-0.952911
0.977020	-0.165558	-0.957489
1.298676	-0.162354	-0.980988
1.669922	-0.133057	-0.980988
1.941223	-0.147858	-0.994873
2.075958	-0.125580	-1.005402
2.113190	-0.122375	-1.030121
2.019043	-0.115051	-1.033325
1.730194	-0.142975	-1.025391
1.283569	-0.115967	-1.047211
0.699615	-0.099030	-1.063690
-0.016327	-0.093689	-1.053009
-0.950470	-0.104828	-1.072693
-1.884766	-0.121307	-1.101379
-2.579651	-0.111237	-1.124420
-2.629547	-0.075684	-1.143799
-2.627411	-0.050964	-1.128235
-2.618408	-0.055389	-1.110077
-2.520294	-0.073700	-1.109009
-2.028809	-0.057220	-1.142883
-1.480408	-0.012054	-1.160126
-0.907593	0.005188	-1.163177
-0.273285	0.024719	-1.160126
0.344543	0.027466	-1.155243
0.851288	0.015411	-1.172638
1.105652	0.021973	-1.182098
1.221161	0.036774	-1.184845
1.091919	0.045013	-1.180420
0.820465	0.044556	-1.207428
0.525208	0.027466	-1.233063
0.356903	0.050964	-1.178436
0.444641	0.067749	-1.186218
0.698090	0.063782	-1.210480
0.881348	0.084534	-1.207275
0.874939	0.051575	-1.196747
0.704346	0.044098	-1.213531
0.439911	0.019684	-1.239624
0.160217	0.023041	-1.226654
-0.220642	0.037994	-1.208954
-0.632629	0.051117	-1.226349
-0.922394	0.019073	-1.238403
-1.145020	0.009613	-1.217194
-1.232910	0.025787	-1.240692
-1.021576	0.016479	-1.248169
-0.667877	0.031891	-1.236725
-0.142212	0.051575	-1.234894
0.319519	0.020599	-1.261139
0.528564	0.022736	-1.251068
0.646973	0.045166	-1.267242
0.633545	0.034790	-1.284637
0.511322	0.033875	-1.277466
0.403137	0.034332	-1.270142
0.197754	-0.005951	-1.284332
0.073547	0.001526	-1.238403
0.054626	0.016785	-1.252136
0.039825	0.002899	-1.262512
-0.035858	-0.010834	-1.249542
-0.170746	-0.056305	-1.285400
-0.289459	-0.098572	-1.286774
-0.382843	-0.109558	-1.273499
-0.495911	-0.114899	-1.288300
-0.601196	-0.166473	-1.318054
-0.619507	-0.154114	-1.305542
-0.642395	-0.173950	-1.325836
-0.615692	-0.198059	-1.342316
-0.525513	-0.202484	-1.341400
-0.375977	-0.233307	-1.352386
-0.176697	-0.252533	-1.345367
0.050812	-0.312500	-1.357574
0.285339	-0.333099	-1.349640
0.452118	-0.354767	-1.361237
0.534821	-0.357208	-1.376953
0.493469	-0.369110	-1.383362
0.488892	-0.407257	-1.367950
0.454559	-0.429993	-1.368408
0.348511	-0.433807	-1.354828
0.239716	-0.438995	-1.349792
0.041504	-0.438385	-1.353149
-0.227509	-0.426788	-1.344604
-0.545502	-0.446167	-1.343842
-0.830994	-0.464172	-1.357880
-0.979462	-0.437164	-1.364441
-1.001740	-0.439453	-1.359558
-0.882416	-0.428772	-1.365356
-0.802307	-0.452728	-1.355286
-0.702820	-0.451813	-1.369476
-0.603180	-0.447998	-1.365204
-0.501099	-0.462341	-1.341095
-0.369720	-0.463409	-1.356354
-0.187988	-0.451050	-1.350250
0.003204	-0.483551	-1.340942
0.177917	-0.522919	-1.313629
0.332336	-0.492554	-1.333313
0.463104	-0.489349	-1.339264
0.605774	-0.480499	-1.309967
0.637665	-0.493317	-1.331329
0.644073	-0.491333	-1.302185
0.666962	-0.485687	-1.291656
0.670013	-0.466766	-1.306458
0.604858	-0.446625	-1.296997
0.449677	-0.434113	-1.276855
0.210876	-0.473022	-1.303406
-0.052948	-0.466461	-1.298523
-0.279541	-0.460968	-1.319275
-0.446777	-0.477600	-1.305084
-0.516205	-0.477448	-1.332703
-0.527039	-0.484619	-1.320648
-0.484467	-0.491638	-1.288147
-0.413208	-0.526581	-1.322479
-0.343170	-0.503693	-1.320343
-0.300140	-0.510101	-1.307373
-0.267944	-0.510712	-1.333160
-0.204163	-0.498047	-1.304016
-0.106659	-0.495148	-1.330261
-0.015411	-0.513306	-1.334991
0.025177	-0.455017	-1.339264
0.039825	-0.451965	-1.314850
0.027618	-0.458832	-1.317596
-0.004730	-0.467529	-1.338348
-0.004120	-0.477905	-1.328125
-0.018768	-0.487671	-1.308441
-0.077820	-0.455170	-1.314545
-0.137787	-0.453949	-1.292877
-0.228119	-0.483856	-1.283722
-0.282898	-0.505524	-1.287537
-0.321655	-0.488129	-1.267700
-0.339355	-0.497589	-1.278381
-0.315399	-0.461578	-1.252899
-0.336456	-0.468597	-1.235352
-0.393677	-0.476379	-1.248779
-0.431671	-0.493317	-1.251068
-0.468292	-0.463257	-1.227875
-0.441284	-0.451508	-1.242828
-0.354004	-0.440063	-1.219482
-0.236816	-0.432434	-1.197357
-0.084076	-0.442047	-1.198120
0.063324	-0.457611	-1.199646
0.195007	-0.456848	-1.176605
0.257568	-0.450592	-1.176605
0.282593	-0.462799	-1.168518
0.255585	-0.482483	-1.181488
0.233459	-0.504150	-1.169586
0.211487	-0.486145	-1.171417
0.212097	-0.475006	-1.156006
0.157471	-0.452728	-1.164551
0.136108	-0.421448	-1.169281
0.103302	-0.371552	-1.150360
0.046997	-0.386505	-1.137238
-0.030975	-0.327454	-1.166229
-0.072479	-0.291138	-1.173859
-0.044403	-0.267029	-1.154175
-0.076904	-0.234222	-1.163177
-0.097351	-0.198059	-1.171417
-0.104065	-0.141602	-1.164398
-0.098724	-0.129395	-1.160126
-0.097046	-0.095215	-1.139832
-0.095673	-0.113373	-1.151733
-0.114136	-0.122528	-1.168518
-0.106659	-0.084229	-1.167145
-0.106354	0.092468	-1.143341
-0.085144	0.344238	-1.156006
-0.068512	0.584259	-1.168060
0.002441	0.760651	-1.168823
0.006256	0.951385	-1.179352
0.030060	1.251221	-1.169586
0.065613	1.623383	-1.199036
0.091553	1.936493	-1.193848
0.083313	2.185211	-1.186829
0.046539	2.486267	-1.193237
-0.011292	2.651367	-1.205444
-0.067749	2.648163	-1.218872
-0.107880	2.655792	-1.208344
-0.150452	2.653503	-1.223145
-0.176697	2.648010	-1.239166
-0.219421	2.643280	-1.240692
-0.267944	2.664185	-1.229553
-0.341797	2.291107	-1.257629
-0.407715	1.825104	-1.285706
-0.438080	1.557617	-1.264343
-0.470428	1.150513	-1.274719
-0.507965	0.769196	-1.272430
-0.504761	0.493774	-1.270599
-0.500031	0.319366	-1.292114
-0.451050	0.163422	-1.281433
-0.396118	-0.035248	-1.294708
-0.342255	-0.161285	-1.307373
-0.251770	-0.250702	-1.291351
-0.177307	-0.328827	-1.307831
-0.092468	-0.412903	-1.303864
0.000458	-0.508881	-1.293030
0.105743	-0.709229	-1.315613
0.173035	-0.926819	-1.295776
0.236053	-1.114349	-1.295776
0.263519	-1.297760	-1.317902
0.275421	-1.421509	-1.282196
0.146637	-1.502533	-1.310425
-0.126801	-1.554413	-1.317444
-0.393982	-1.621399	-1.316833
-0.592499	-1.667480	-1.327972
-0.524750	-1.678314	-1.318207
-0.106964	-1.667938	-1.329041
0.575714	-1.619110	-1.318665
1.283417	-1.572571	-1.298370
1.826324	-1.511536	-1.320801
2.118683	-1.391907	-1.291351
1.934814	-1.269989	-1.306000
1.345215	-1.231689	-1.301575
0.629120	-1.142883	-1.292419
0.025330	-1.092987	-1.316986
-0.389404	-1.031799	-1.290283
-0.658875	-0.956879	-1.315460
-0.827789	-0.858002	-1.309509
-0.932465	-0.706329	-1.304016
-1.174469	-0.649872	-1.313934
-1.610718	-0.492859	-1.310730
-2.001343	-0.357666	-1.311035
-2.093811	-0.245361	-1.304626
-1.846161	-0.218658	-1.259460
-1.388855	-0.193176	-1.257324
-0.995178	-0.180511	-1.233826
-0.855865	-0.145264	-1.200409
-0.930176	-0.128326	-1.154633
-1.101990	-0.136566	-1.154480
-1.248322	-0.180664	-1.134949
-1.196442	-0.168152	-1.101532
-0.977783	-0.179749	-1.112213
-0.485992	-0.143738	-1.057892
0.232391	-0.129547	-1.072540
1.126099	-0.142059	-1.094666
1.741943	-0.152740	-1.110229
1.949310	-0.138245	-1.121063
1.727753	-0.094147	-1.118317
1.253662	-0.100250	-1.130371
0.747528	-0.074310	-1.149597
0.365906	-0.089722	-1.181030
0.173340	-0.074921	-1.158600
0.175934	-0.049286	-1.129150
0.339966	-0.041046	-1.099548
0.693054	-0.017242	-1.086731
1.103973	-0.059814	-1.063690
1.378937	-0.067902	-1.046143
1.352844	-0.058441	-0.995941
0.977478	-0.032501	-0.993042
0.479431	-0.041504	-0.949860
-0.067596	-0.015717	-0.904388
-0.770111	0.002899	-0.871429
-1.145935	-0.006866	-0.819397
-1.121826	-0.017548	-0.760193
-0.776215	0.015106	-0.689850
-0.298920	0.068512	-0.589905
0.032196	0.048828	-0.523529
0.195312	0.041046	-0.450745
-0.006409	0.047607	-0.372314
-0.260773	0.065155	-0.306244
-0.498962	0.055389	-0.255127
-0.657196	0.081024	-0.210266
-1.024628	0.061493	-0.161896
-1.305847	0.063019	-0.108795
-1.177368	0.073242	-0.077057
-0.496826	0.094299	-0.073853
0.721283	0.110779	-0.041962
0.938263	0.111389	-0.029144
0.315552	0.107422	-0.024414
0.013733	0.123291	-0.004120
0.046844	0.162811	-0.004272
0.230408	0.180969	-0.014954
0.506287	0.205231	-0.010834
0.244598	0.201569	-0.005035
-0.574951	0.204773	0.003052
-1.063385	0.206757	0.013123
-0.590973	0.215912	0.040131
0.020447	0.248566	0.041351
-0.068970	0.260468	0.071411
-0.254669	0.239410	0.092468
0.052948	0.258026	0.134430
0.334778	0.275574	0.154877
0.019989	0.289001	0.201263
-0.697937	0.297699	0.239258
-1.049652	0.324707	0.294037
-1.161041	0.315552	0.338287
-0.776978	0.332794	0.399323
-0.379333	0.360565	0.479889
-0.173645	0.394287	0.557251
-0.181427	0.401001	0.618134
-0.738831	0.415497	0.665894
-0.895844	0.427551	0.723724
-0.044250	0.437622	0.758972
0.114594	0.472717	0.828857
-0.078430	0.488129	0.906830
0.220337	0.492859	0.947113
0.791473	0.500793	1.033936
0.665283	0.492859	1.039734
0.747375	0.478363	1.068878
1.309814	0.507660	1.122742
1.222382	0.553131	1.169281
0.813751	0.550385	1.219940
-0.410004	0.568085	1.238251
-1.834717	0.609894	1.272278
-2.384491	0.638733	1.334076
-2.213745	0.645294	1.362457
-0.983124	0.646057	1.387634
0.813904	0.642700	1.513367
2.236633	0.657196	1.566010
2.267761	0.681000	1.500549
0.273895	0.700073	1.499939
-1.619415	0.703583	1.564026
-1.592865	0.697937	1.628723
-0.485840	0.704956	1.687927
0.402069	0.718994	1.608429
1.296387	0.747070	1.587067
1.401215	0.767059	1.684265
0.762634	0.781708	1.778412
-0.059662	0.765991	1.722260
0.006866	0.759583	1.716003
0.435181	0.811768	1.807251
0.397949	0.844879	1.937408
0.434265	0.851746	2.001953
0.043793	0.866394	1.978607
-1.602325	0.868683	1.911774
-2.610474	0.870514	1.957550
-2.628784	0.870209	1.998444
-0.889282	0.897217	1.955109
1.200409	0.878906	1.914520
2.680054	0.879364	1.995239
2.684174	0.896912	2.034607
1.824036	0.897369	2.048035
-0.845337	0.917511	1.987152
-2.651367	0.909119	1.916962
-2.619171	0.921021	1.962585
-1.202393	0.916748	1.987152
-0.155792	0.939636	2.007446
0.436859	0.966644	2.007904
1.244202	0.982971	2.041168
1.865082	1.019287	2.046356
1.083527	0.995178	2.021027
-0.693359	0.990601	2.056580
-1.701355	0.995331	2.070465
-0.886841	1.018219	2.052307
0.489502	1.004028	2.032928
0.868835	1.018066	2.108459
0.597839	1.023254	2.156982
0.126190	0.984497	2.097015
-1.052551	1.001740	2.044830
-2.185822	1.037750	2.062225
-1.740112	1.041412	2.086029
0.035400	1.030121	2.093964
1.797180	1.012878	2.098236
2.493439	1.023712	2.074280
1.947479	1.049500	2.117310
0.530701	1.084595	2.121124
-1.444550	1.089783	2.122650
-2.636261	1.041412	2.131195
-2.403870	1.055145	2.150726
-0.216827	1.062622	2.115784
1.802521	1.050720	2.138062
1.748505	1.069794	2.144012
0.602417	1.069946	2.185974
-0.492706	1.047668	2.163696
-0.505371	1.041260	2.165375
0.598755	1.063385	2.162781
1.604156	1.073761	2.129822
1.779327	1.105042	2.136688
0.902710	1.093140	2.135468
-0.995331	1.093140	2.100067
-2.607422	1.108704	2.078552
-2.624512	1.116638	2.086792
-2.250519	1.119537	2.129059
-1.020966	1.094971	2.126007
-0.194855	1.087494	2.133484
0.614471	1.101379	2.147369
1.241455	1.091461	2.164307
1.063538	1.094360	2.149963
0.520325	1.066895	2.098541
0.257721	1.079712	2.104797
-0.154572	1.062622	2.114716
-0.409851	1.095581	2.123260
-0.452271	1.086273	2.117615
0.197296	1.069031	2.085419
0.978851	1.060333	2.059937
1.363068	1.073303	2.049255
1.126709	1.067352	2.052460
0.802917	1.069794	2.079315
-0.039978	1.089325	2.086945
-1.459351	1.087036	2.052307
-2.044220	1.039124	2.001038
-2.124176	1.030579	1.978149
-1.444092	1.042023	1.979828
-0.281830	1.017456	1.963348
0.523529	0.998383	1.948395
0.501404	0.980225	1.937103
0.030975	0.959015	1.938324
-0.077667	0.921478	1.914215
0.247345	0.943451	1.892700
0.764771	0.936584	1.860504
1.306763	0.932007	1.832581
1.100311	0.905457	1.836090
0.144196	0.891113	1.818542
-0.781708	0.892181	1.799164
-1.376190	0.878754	1.788940
-1.474915	0.895691	1.802521
-0.623322	0.856323	1.764069
0.099030	0.798950	1.743622
0.357208	0.781097	1.729279
0.835571	0.771637	1.692352
0.765228	0.753326	1.667023
0.202484	0.730896	1.649628
0.421753	0.697632	1.624756
0.664978	0.654755	1.572876
-0.287170	0.617523	1.541595
-0.975037	0.624390	1.549683
-0.617676	0.608521	1.513672
-0.167236	0.581665	1.529083
-0.013885	0.536957	1.512604
0.076447	0.515442	1.480560
-0.090637	0.506134	1.480560
-0.371399	0.498047	1.472778
-0.602875	0.458069	1.473083
-0.612640	0.427551	1.438751
-0.134125	0.411530	1.394653
0.185699	0.375671	1.388092
0.455017	0.352325	1.370697
0.516815	0.333710	1.332550
-0.121460	0.293121	1.296387
-0.547028	0.271149	1.291351
-0.401611	0.205536	1.272888
-0.148468	0.213165	1.242218
0.187836	0.196533	1.219788
0.354309	0.186768	1.201172
-0.087738	0.163879	1.200256
-0.895386	0.131531	1.193237
-1.349030	0.108185	1.157074
-1.089020	0.137787	1.121979
-0.445862	0.123596	1.134796
0.922241	0.098572	1.101532
1.991730	0.050049	1.052094
1.769409	0.033569	1.040497
0.154877	0.041962	1.027222
-1.966400	0.009918	1.013031
-2.624207	-0.014648	1.014862
-2.434387	-0.052948	1.021271
-0.139465	-0.055389	1.028290
1.821136	-0.085144	1.006622
2.558441	-0.082550	0.984955
2.675781	-0.086975	0.955658
1.804047	-0.076599	0.945587
-0.008850	-0.107269	0.889893
-1.071472	-0.138702	0.866699
-1.375427	-0.143280	0.854187
-1.328888	-0.132904	0.859680
-1.142273	-0.119781	0.839539
-0.720062	-0.141907	0.805054
0.068817	-0.177765	0.783386
0.883026	-0.199280	0.765686
1.105042	-0.195160	0.736847
0.634766	-0.209961	0.688782
0.050507	-0.227814	0.665894
-0.564728	-0.225220	0.649261
-0.950470	-0.247192	0.619202
-0.642242	-0.270386	0.581970
0.354004	-0.257111	0.546112
1.201630	-0.260315	0.505371
1.399384	-0.263672	0.481110
1.334686	-0.261536	0.438995
1.103516	-0.282135	0.412292
0.357819	-0.259857	0.389557
-1.215973	-0.238190	0.351410
-2.617950	-0.261230	0.288696
-2.624359	-0.283813	0.240936
-2.028656	-0.305328	0.193939
-0.949707	-0.284576	0.164185
-0.551453	-0.275879	0.130463
-0.056000	-0.274963	0.084686
0.736389	-0.293427	0.046387
1.576385	-0.305176	0.024261
1.735382	-0.328827	-0.025635
1.025085	-0.328064	-0.103607
-0.146179	-0.316772	-0.135345
-1.408081	-0.296021	-0.166626
-2.180634	-0.309448	-0.192719
-2.258911	-0.323181	-0.174561
-1.775055	-0.328522	-0.178528
-0.805511	-0.315857	-0.142059
0.433044	-0.294952	-0.077515
1.584167	-0.291443	-0.007935
2.376099	-0.314789	0.027924
2.683258	-0.301971	0.097656
2.612152	-0.296173	0.166168
2.008362	-0.288086	0.215302
1.194916	-0.290680	0.239563
0.335693	-0.322876	0.275574
-0.401764	-0.308228	0.280609
-0.915833	-0.307312	0.296783
-1.086273	-0.321960	0.256805
-1.148682	-0.286102	0.251617
-1.266785	-0.293732	0.238495
-1.179352	-0.286865	0.215607
-0.933075	-0.315399	0.226746
-0.573578	-0.280914	0.193939
-0.259857	-0.271149	0.199738
-0.199585	-0.287323	0.221558
-0.398102	-0.288544	0.177917
-0.675964	-0.301514	0.180511
-0.830383	-0.292969	0.198059
-0.681152	-0.299835	0.199127
-0.348816	-0.302582	0.218811
-0.046539	-0.308533	0.211487
0.160828	-0.310364	0.231781
0.304108	-0.309906	0.239410
0.440063	-0.316162	0.213623
0.575409	-0.331421	0.207062
0.709229	-0.310669	0.200348
0.765533	-0.300751	0.202942
0.684052	-0.313110	0.173492
0.479584	-0.318146	0.145264
0.171509	-0.281372	0.146637
-0.151672	-0.278168	0.132599
-0.437622	-0.283813	0.118408
-0.708466	-0.292358	0.071411
-0.847473	-0.283966	0.074310
-0.868073	-0.292511	0.082855
-0.818481	-0.274353	0.068512
-0.693817	-0.279388	0.052185
-0.556488	-0.280762	0.042267
-0.405273	-0.291901	0.033112
-0.267334	-0.305786	-0.005341
-0.127411	-0.301971	-0.033417
-0.010529	-0.307007	-0.063019
0.077667	-0.297241	-0.093536
0.170135	-0.287628	-0.099945
0.210114	-0.290222	-0.135193
0.208130	-0.269318	-0.158386
0.147552	-0.275879	-0.178986
0.065918	-0.264435	-0.192108
-0.035095	-0.264587	-0.209961
-0.112915	-0.273132	-0.226135
-0.096893	-0.291748	-0.257111
-0.023041	-0.276794	-0.270844
0.087433	-0.280304	-0.293121
0.208282	-0.271454	-0.310516
0.311127	-0.285950	-0.321350
0.339050	-0.295563	-0.322876
0.320282	-0.299835	-0.334930
0.214386	-0.287933	-0.353088
0.110321	-0.292053	-0.380096
-0.017853	-0.262451	-0.372009
-0.137329	-0.270844	-0.389099
-0.215454	-0.280609	-0.377045
-0.275879	-0.272217	-0.404663
-0.316620	-0.255890	-0.426788
-0.279236	-0.241852	-0.423126
-0.246277	-0.267944	-0.442352
-0.175629	-0.278625	-0.436401
-0.108643	-0.265961	-0.464020
-0.081940	-0.252075	-0.458832
-0.072479	-0.266266	-0.478973
-0.058136	-0.274048	-0.493927
-0.093384	-0.285187	-0.510101
-0.153961	-0.305328	-0.531464
-0.249786	-0.312042	-0.547638
-0.323944	-0.297241	-0.561371
-0.358887	-0.281677	-0.579987
-0.349274	-0.288849	-0.588989
-0.272827	-0.296478	-0.600586
-0.166931	-0.283051	-0.599976
-0.077972	-0.276337	-0.641327
0.033112	-0.254211	-0.633392
0.064087	-0.264282	-0.628967
-0.007782	-0.277710	-0.648956
-0.133667	-0.288239	-0.646362
-0.298767	-0.275726	-0.634460
-0.541382	-0.279846	-0.647430
-0.758667	-0.270844	-0.644379
-0.896606	-0.294037	-0.635071
-0.910187	-0.307922	-0.644531
-0.800781	-0.322876	-0.648804
-0.625916	-0.319061	-0.671234
-0.341797	-0.305634	-0.672607
-0.012054	-0.319519	-0.676422
0.340118	-0.327911	-0.682983
0.736084	-0.319672	-0.682068
1.137390	-0.294952	-0.684204
1.538849	-0.288086	-0.692139
1.912842	-0.289917	-0.704803
2.198639	-0.290985	-0.709991
2.291565	-0.277252	-0.716248
2.084198	-0.273743	-0.710907
1.616974	-0.296783	-0.721130
0.952301	-0.301361	-0.748444
0.214996	-0.308838	-0.740967
-0.547180	-0.352478	-0.753174
-1.217957	-0.330658	-0.754852
-1.760406	-0.334015	-0.746765
-2.103729	-0.344238	-0.780182
-2.252655	-0.330658	-0.777283
-2.220764	-0.341492	-0.799713
-2.065735	-0.310822	-0.815582
-1.844025	-0.348663	-0.827942
-1.544800	-0.333252	-0.843964
-1.183319	-0.316315	-0.859222
-0.859680	-0.298615	-0.865936
-0.556488	-0.306091	-0.878906
-0.317688	-0.313873	-0.890961
-0.072937	-0.298157	-0.894165
0.148773	-0.305328	-0.896149
0.305328	-0.297089	-0.914307
0.327148	-0.286713	-0.908508
0.301666	-0.310059	-0.941010
0.295715	-0.304718	-0.940399
0.364227	-0.298615	-0.966492
0.453491	-0.253754	-0.972443
0.559845	-0.251312	-0.976257
0.665588	-0.247803	-0.995941
0.710602	-0.254822	-1.008301
0.673065	-0.217285	-1.012268
0.581818	-0.180664	-1.014099
0.411987	-0.174866	-1.013031
0.182190	-0.167694	-1.028290
-0.079956	-0.163269	-1.055908
-0.308380	-0.136261	-1.037292
-0.497742	-0.123291	-1.053314
-0.542450	-0.124054	-1.082306
-0.473328	-0.099792	-1.081238
-0.274353	-0.108185	-1.061096
-0.070038	-0.125275	-1.086578
0.067139	-0.119476	-1.089783
0.138397	-0.084381	-1.084900
0.192719	-0.066833	-1.081390
0.247803	-0.087891	-1.101379
0.299225	-0.109558	-1.099091
0.348969	-0.102997	-1.133423
0.311737	-0.093994	-1.142578
0.151520	-0.066681	-1.144104
-0.034485	-0.012360	-1.122589
-0.226593	0.006714	-1.138916
-0.362701	-0.011902	-1.157074
-0.444641	-0.007477	-1.151581
-0.434723	0.024719	-1.131897
-0.380554	0.035858	-1.139069
-0.316925	0.045776	-1.162720
-0.272064	0.033875	-1.172943
-0.169983	0.018616	-1.135864
-0.060730	0.014343	-1.157837
0.051727	0.042419	-1.177216
0.048676	0.059509	-1.181946
0.005798	0.050659	-1.172638
-0.051727	0.034332	-1.167755
-0.108643	0.011139	-1.184998
-0.169830	0.034332	-1.194305
-0.212402	0.041809	-1.178131
-0.270538	0.028229	-1.161041
-0.336609	-0.010376	-1.173706
-0.330658	0.010071	-1.175232
-0.278168	0.041656	-1.160431
-0.240784	0.052338	-1.123505
-0.261688	0.052032	-1.110992
-0.323029	0.037079	-1.121216
-0.323181	0.017395	-1.132965
-0.241852	0.002289	-1.112823
-0.113831	0.021057	-1.121368
0.027924	0.007935	-1.097260
0.098419	-0.002594	-1.094360
0.117340	-0.010529	-1.098328
0.079193	-0.021362	-1.092529
0.000458	-0.007324	-1.084900
-0.055847	0.012360	-1.092224
-0.075684	0.051117	-1.052246
-0.131836	0.042267	-1.029053
-0.166321	0.020142	-1.012115
-0.180664	-0.009766	-1.016235
-0.131226	-0.008087	-1.007996
-0.047760	-0.041962	-1.003723
0.038605	-0.061798	-1.003723
0.112915	-0.114899	-0.983887
0.179443	-0.146179	-0.967560
0.164490	-0.189209	-0.993958
0.147858	-0.202332	-0.955200
0.118408	-0.204315	-0.955353
0.046387	-0.200806	-0.938873
-0.041962	-0.234375	-0.933075
-0.125580	-0.266876	-0.933075
-0.170441	-0.290375	-0.928345
-0.179291	-0.297394	-0.928497
-0.148010	-0.310516	-0.905609
-0.138092	-0.342560	-0.899811
-0.125427	-0.365753	-0.893860
-0.110321	-0.371857	-0.887146
-0.124817	-0.368042	-0.876007
-0.142822	-0.379028	-0.865631
-0.181732	-0.397186	-0.866852
-0.203247	-0.424805	-0.856476
-0.165558	-0.429077	-0.847626
-0.179596	-0.446472	-0.870972
-0.189667	-0.438843	-0.868988
-0.186768	-0.437164	-0.869293
-0.180054	-0.426788	-0.851746
-0.185089	-0.445251	-0.863800
-0.173645	-0.433655	-0.851898
-0.189972	-0.401154	-0.840759
-0.190430	-0.401306	-0.836029
-0.178375	-0.413818	-0.819702
-0.199585	-0.427094	-0.836029
-0.191803	-0.410309	-0.823364
-0.167847	-0.412750	-0.827942
-0.126343	-0.424652	-0.844116
-0.082397	-0.442352	-0.839996
-0.021820	-0.462952	-0.852509
0.009308	-0.460358	-0.852509
0.021820	-0.485229	-0.841370
0.004578	-0.490265	-0.834198
-0.021362	-0.477142	-0.833588
-0.055237	-0.464630	-0.846558
-0.092773	-0.494690	-0.864716
-0.121460	-0.488129	-0.876007
-0.124207	-0.482635	-0.873566
-0.086365	-0.455322	-0.875092
-0.003510	-0.436096	-0.851135
0.060730	-0.460358	-0.852814
0.126495	-0.485687	-0.853882
0.135498	-0.474396	-0.860138
0.129242	-0.485229	-0.875702
0.104828	-0.472565	-0.869598
0.073090	-0.478058	-0.876617
0.033722	-0.499573	-0.856628
0.006866	-0.496368	-0.886230
-0.004730	-0.512390	-0.895996
-0.026703	-0.506592	-0.909729
-0.027771	-0.491791	-0.907440
-0.069885	-0.495300	-0.920563
-0.093384	-0.465546	-0.899048
-0.142212	-0.451813	-0.891876
-0.194397	-0.460815	-0.903473
-0.219116	-0.458679	-0.888519
-0.214081	-0.428314	-0.872192
-0.217896	-0.421906	-0.886230
-0.257874	-0.453186	-0.882111
-0.262756	-0.422974	-0.869446
-0.278778	-0.446014	-0.876160
-0.295563	-0.426178	-0.872040
-0.300751	-0.442810	-0.882568
-0.297546	-0.457153	-0.880127
-0.296631	-0.445862	-0.882721
-0.274811	-0.463867	-0.885620
-0.243073	-0.441284	-0.866852
-0.221863	-0.421295	-0.883484
-0.183258	-0.431366	-0.874786
-0.119781	-0.424347	-0.869446
-0.117645	-0.431976	-0.873108
-0.091705	-0.439453	-0.861359
-0.044556	-0.410919	-0.865631
0.006866	-0.420685	-0.852966
0.034027	-0.417938	-0.853424
0.029755	-0.435333	-0.847778
0.025177	-0.448608	-0.846710
0.042419	-0.431671	-0.829773
0.043182	-0.414734	-0.821533
0.052338	-0.426025	-0.804443
0.090637	-0.409241	-0.791779
0.146332	-0.401917	-0.782471
0.156860	-0.388336	-0.797272
0.158844	-0.347748	-0.792236
0.186005	-0.296326	-0.779419
0.179596	-0.256500	-0.777740
0.152588	-0.226898	-0.764008
0.091248	-0.191040	-0.753479
0.003204	-0.118561	-0.764465
-0.034180	-0.090485	-0.745239
-0.074310	-0.085754	-0.755463
-0.132751	-0.076904	-0.734100
-0.220795	-0.076447	-0.727844
-0.254059	-0.002747	-0.703125
-0.233307	0.209503	-0.730438
-0.198975	0.460052	-0.709686
-0.188751	0.667572	-0.711823
-0.147247	0.853729	-0.699310
-0.090637	1.066742	-0.682678
-0.042267	1.390533	-0.687561
-0.049896	1.763916	-0.682831
-0.061035	2.017059	-0.708771
-0.011902	2.291107	-0.690765
0.001678	2.619476	-0.679169
-0.045929	2.648621	-0.681152
-0.052643	2.653656	-0.674896
-0.063324	2.655029	-0.665741
-0.141144	2.650299	-0.677338
-0.213165	2.644653	-0.689545
-0.231934	2.658234	-0.665588
-0.276184	2.661591	-0.655670
-0.348816	2.143707	-0.687103
-0.400848	1.758423	-0.661774
-0.456696	1.419525	-0.642090
-0.503387	0.985870	-0.658264
-0.547028	0.629120	-0.683746
-0.523224	0.387115	-0.666809
-0.504913	0.229645	-0.694885
-0.457153	0.092621	-0.683441
-0.335693	-0.072327	-0.677185
-0.223389	-0.159760	-0.670166
-0.132294	-0.263214	-0.674896
0.006866	-0.286865	-0.661774
0.150604	-0.358429	-0.668640
0.234070	-0.546722	-0.680084
0.323792	-0.765228	-0.685120
0.354767	-0.953674	-0.686340
0.367584	-1.175842	-0.669708
0.310516	-1.351318	-0.678406
0.201416	-1.443787	-0.686951
0.100403	-1.535339	-0.678253
0.004730	-1.620178	-0.670166
-0.051117	-1.677399	-0.689087
-0.020142	-1.700439	-0.686035
0.069122	-1.720123	-0.665283
0.042877	-1.678925	-0.676880
-0.009613	-1.629639	-0.693512
0.022736	-1.537628	-0.681610
0.162354	-1.434937	-0.675812
0.509491	-1.327972	-0.664825
1.014862	-1.249237	-0.657196
1.636658	-1.179810	-0.676727
2.076416	-1.090851	-0.679626
2.091980	-1.048737	-0.674744
1.611481	-0.979919	-0.688477
0.727081	-0.902405	-0.682831
-0.474701	-0.771027	-0.688782
-1.754150	-0.676117	-0.702667
-2.629852	-0.537872	-0.718384
-2.622681	-0.385132	-0.707703
-2.631989	-0.307617	-0.705261
-2.413177	-0.251617	-0.690918
-1.628265	-0.234070	-0.663757
-1.130371	-0.218964	-0.660248
-1.084442	-0.184937	-0.664520
-1.206360	-0.159912	-0.636139
-1.262665	-0.111694	-0.606079
-1.194000	-0.148315	-0.642090
-0.895844	-0.153503	-0.593567
-0.531006	-0.138092	-0.594330
-0.061035	-0.160065	-0.607605
0.555573	-0.140686	-0.597687
1.141663	-0.113220	-0.621948
1.448059	-0.145416	-0.638733
1.462708	-0.145264	-0.648499
1.338806	-0.124969	-0.667267
1.014099	-0.116577	-0.662689
0.624390	-0.101776	-0.671844
0.480499	-0.095673	-0.684814
0.575104	-0.080872	-0.693665
0.824127	-0.084381	-0.676422
1.108551	-0.056915	-0.666351
1.423798	-0.036926	-0.628662
1.582031	-0.014191	-0.592041
1.485443	-0.014648	-0.569458
1.450500	-0.018005	-0.546570
1.070557	-0.033112	-0.528564
0.471497	0.015564	-0.488281
-0.457458	0.006409	-0.461121
-1.444855	0.017395	-0.396118
-2.082062	0.007172	-0.318451
-2.279663	-0.014038	-0.273743
-1.694794	-0.007477	-0.205994
-0.863342	0.025635	-0.118561
-0.131683	0.042725	-0.054169
0.294342	0.009766	0.009308
0.555573	-0.001984	0.088806
0.645905	0.020447	0.196533
0.238953	0.064392	0.250397
-0.453796	0.073090	0.332336
-1.248474	0.052948	0.391541
-1.663971	0.033875	0.428162
-1.415710	0.088501	0.474854
-0.817871	0.081482	0.491943
-0.264130	0.086670	0.539093
0.225983	0.098267	0.549774
0.859222	0.101013	0.555878
1.092377	0.095978	0.540466
0.625000	0.111694	0.507965
0.180359	0.138397	0.514069
0.009766	0.161438	0.532532
0.058899	0.178375	0.569000
0.065918	0.171967	0.578766
0.140991	0.173645	0.574646
0.401001	0.184174	0.591431
0.764008	0.230103	0.626221
0.969238	0.242157	0.660553
0.866547	0.269775	0.669861
0.116272	0.252533	0.690765
-0.545044	0.247192	0.714417
-0.821075	0.269470	0.752258
-0.835571	0.285492	0.782471
-1.080017	0.305786	0.830994
-1.823730	0.323334	0.877075
-2.193298	0.318451	0.926819
-1.772308	0.323792	0.961609
-1.056824	0.360107	1.043549
-0.645294	0.382996	1.110687
-0.336914	0.393829	1.177063
-0.173187	0.379791	1.218872
0.512543	0.393677	1.297150
1.524048	0.416565	1.362305
1.543732	0.437469	1.437531
0.824127	0.472107	1.483765
-0.171509	0.442200	1.529846
-1.053314	0.457764	1.577606
-1.215820	0.509033	1.637726
-0.513306	0.507355	1.640015
0.700073	0.497742	1.641083
1.179199	0.502777	1.761627
0.920563	0.512543	1.785889
0.897217	0.517426	1.756439
1.188202	0.541840	1.810913
0.740051	0.563049	1.869659
-0.372772	0.572510	1.844788
-0.411987	0.548401	1.819305
-0.340118	0.593872	1.906586
-1.184082	0.629578	1.950073
-1.949158	0.638580	2.004089
-1.165009	0.675507	2.087708
0.132141	0.667419	2.051239
1.092377	0.654755	2.026520
1.431122	0.684052	2.099915
1.730194	0.691833	2.178802
1.555176	0.697327	2.172394
0.440674	0.705566	2.221222
-1.144562	0.689087	2.234955
-2.487335	0.689545	2.198792
-2.570801	0.675812	2.113342
-1.242065	0.703735	2.168579
-0.158844	0.710144	2.243347
0.637512	0.734711	2.287903
1.234436	0.745544	2.296753
0.871124	0.735931	2.244568
-0.042877	0.774841	2.234955
-0.300140	0.809631	2.262268
0.394440	0.835266	2.261505
0.636902	0.816956	2.273712
0.130157	0.816956	2.289429
-0.981903	0.824127	2.329254
-1.640778	0.818634	2.321472
-1.129761	0.827637	2.321625
0.086365	0.823517	2.365417
0.373230	0.823822	2.438660
-0.047302	0.835724	2.433929
-0.028992	0.819244	2.389221
0.363617	0.834503	2.347717
0.328369	0.858307	2.375641
0.050049	0.881805	2.377625
0.215607	0.900726	2.377167
0.406799	0.878601	2.332458
0.356293	0.904388	2.375031
0.201263	0.934906	2.411041
0.462646	0.932312	2.418823
0.383453	0.954285	2.393036
-1.025848	0.963745	2.431030
-2.481079	0.949707	2.407379
-2.615356	0.946198	2.399750
-1.415558	0.930786	2.412262
0.511932	0.971985	2.466125
1.585999	0.979004	2.508087
1.325073	0.951996	2.486877
0.670013	0.964203	2.482147
-0.116272	0.967712	2.481995
-0.588226	0.969238	2.494507
-0.232391	0.992889	2.506561
0.530548	0.978394	2.536316
0.523682	1.015472	2.557220
0.428467	1.018524	2.555695
0.203857	1.037903	2.513733
0.337524	1.024170	2.445831
-0.222015	1.034241	2.452850
-1.029816	1.035461	2.483063
-1.422882	1.057587	2.494507
-1.330109	1.050873	2.489014
-0.609131	1.015015	2.467957
1.004486	1.013641	2.488403
2.359009	1.003418	2.508392
2.603760	1.003418	2.489471
1.704559	1.031036	2.435303
1.210327	1.061859	2.474060
0.784149	1.011658	2.472687
-0.405121	1.029205	2.509003
-1.864014	1.031189	2.522125
-2.367401	1.068420	2.544098
-2.174835	1.112061	2.546997
-2.014008	1.095428	2.541809
-1.786194	1.060638	2.501831
-0.978699	1.045685	2.482605
0.537262	1.062012	2.475739
1.025238	1.084442	2.431641
1.375732	1.096649	2.442627
1.457825	1.072235	2.488861
0.711365	1.067657	2.508392
-0.403290	1.046600	2.492371
-1.022797	1.042938	2.447815
-1.296997	1.050873	2.439575
-1.089783	1.036072	2.376556
-0.350800	1.016388	2.348938
0.440216	1.001282	2.351685
0.950775	1.017456	2.351227
1.371307	1.007843	2.400665
1.602173	1.007690	2.416534
1.290741	0.974274	2.394409
0.227356	0.958710	2.348480
-0.057373	0.972900	2.325134
-0.250244	0.972900	2.294006
-0.298004	0.949860	2.257690
-0.745087	0.929260	2.230377
-1.847534	0.899963	2.230225
-2.001038	0.883179	2.232819
-0.833893	0.843964	2.200317
-0.020294	0.834198	2.168121
0.212708	0.836029	2.143860
0.035858	0.811920	2.149658
-0.464630	0.814972	2.135468
-1.210175	0.792847	2.111664
-1.435394	0.765076	2.086182
-0.375214	0.762024	2.082367
0.482635	0.740204	2.061462
0.544434	0.708618	1.981201
0.702515	0.669250	1.974487
1.478271	0.645447	1.984711
2.517395	0.615692	1.986542
2.138062	0.600433	1.978912
1.147461	0.576630	1.965637
0.240631	0.565796	1.986847
-0.542755	0.526276	1.950836
-1.092682	0.496368	1.896057
-1.353149	0.464478	1.858521
-1.422119	0.461273	1.864014
-0.906067	0.394287	1.846619
-0.164185	0.385742	1.839142
0.250854	0.382538	1.829834
0.470734	0.363312	1.814880
0.180054	0.364990	1.804810
-0.412292	0.349731	1.786041
-0.898285	0.353088	1.750946
-1.208496	0.302734	1.725006
-1.167297	0.275726	1.710052
-0.968933	0.238342	1.694946
0.087585	0.253601	1.683655
0.402374	0.200043	1.664276
-0.591125	0.164642	1.680603
-1.154938	0.139771	1.621857
-0.950470	0.128784	1.573944
-0.126190	0.126038	1.539917
0.769806	0.087585	1.534729
1.100311	0.055695	1.516418
1.293030	0.036316	1.483459
1.943970	0.044098	1.491394
1.745148	0.049438	1.494598
0.446320	0.051117	1.497040
-0.709991	-0.014954	1.443024
-1.376801	-0.033569	1.415405
-1.589203	-0.034027	1.436920
-1.062469	-0.065002	1.402893
-0.728302	-0.083008	1.378174
-0.850525	-0.070343	1.345520
-0.484161	-0.101166	1.338501
0.318909	-0.103455	1.342163
0.953369	-0.152435	1.287689
1.367035	-0.162659	1.277618
1.369629	-0.159607	1.251068
0.757751	-0.180359	1.215515
-0.264130	-0.196075	1.205902
-0.689240	-0.179749	1.204987
-0.317688	-0.166473	1.139526
-0.111694	-0.160522	1.121826
0.199127	-0.138702	1.099243
0.468750	-0.168304	1.053619
0.785217	-0.200195	1.038361
0.923309	-0.215607	1.016388
0.848236	-0.219727	0.997467
0.536957	-0.226288	0.953064
0.310974	-0.243530	0.942688
0.033112	-0.257111	0.944519
-0.414734	-0.282745	0.909882
-0.854034	-0.306091	0.858459
-1.382446	-0.304871	0.820770
-1.677551	-0.317993	0.784607
-1.593628	-0.300293	0.741730
-1.831207	-0.310211	0.680847
-2.423553	-0.299530	0.656586
-2.582397	-0.266876	0.634460
-1.976624	-0.251160	0.577698
-0.490112	-0.299225	0.516663
1.254730	-0.326691	0.461884
2.298889	-0.315094	0.408020
1.811829	-0.325470	0.358276
0.651855	-0.330811	0.314941
-0.400085	-0.326080	0.282135
-0.947723	-0.338898	0.249786
-1.080780	-0.355988	0.259399
-0.436859	-0.350494	0.257111
0.449219	-0.355988	0.297394
1.371002	-0.352325	0.327759
2.340393	-0.364838	0.389557
2.690430	-0.362549	0.432281
2.684174	-0.371399	0.512390
2.700958	-0.334015	0.575104
1.921539	-0.316010	0.618591
0.449677	-0.315094	0.645294
-0.935516	-0.318756	0.646820
-1.865387	-0.328217	0.652924
-2.376862	-0.345001	0.637512
-2.504730	-0.331879	0.628510
-2.181549	-0.329742	0.623779
-1.423187	-0.337219	0.593719
-0.767822	-0.357513	0.602875
-0.561829	-0.420837	0.581818
-0.524597	-0.406799	0.561523
-0.248566	-0.369873	0.546417
-0.139923	-0.343781	0.545197
-0.284729	-0.367737	0.530090
-0.723724	-0.341644	0.544128
-1.121979	-0.330353	0.545044
-1.448364	-0.347443	0.554047
-1.576691	-0.357819	0.571289
-1.167450	-0.359192	0.569000
-0.414734	-0.352631	0.546112
0.443115	-0.343781	0.536346
1.006775	-0.326996	0.530701
1.396332	-0.313873	0.562744
1.614227	-0.315247	0.559082
1.616516	-0.323792	0.570374
1.531067	-0.351868	0.541382
1.356201	-0.386658	0.524597
0.655060	-0.361328	0.505676
0.042114	-0.352936	0.468140
-0.387421	-0.355377	0.459595
-0.968933	-0.344086	0.418243
-1.075897	-0.367584	0.415497
-0.943298	-0.312500	0.396118
-0.790253	-0.336609	0.389099
-0.445099	-0.292511	0.422516
-0.122223	-0.319366	0.377960
0.054779	-0.346985	0.367126
0.268707	-0.353088	0.337067
0.376587	-0.305176	0.334167
0.291901	-0.323944	0.302124
0.279388	-0.317230	0.303955
0.216522	-0.351868	0.263824
0.045319	-0.340729	0.250244
-0.217133	-0.368042	0.185547
-0.347443	-0.352783	0.164490
-0.277557	-0.353394	0.142059
-0.558014	-0.365295	0.100098
-0.778961	-0.345154	0.091095
-0.803375	-0.368042	0.074310
-0.632629	-0.328979	0.058746
-0.379028	-0.310822	0.021820
-0.007019	-0.303802	0.004120
0.197144	-0.298004	-0.018921
0.098267	-0.321960	-0.041656
0.161896	-0.317078	-0.069580
0.200806	-0.306702	-0.069122
0.201569	-0.286407	-0.079803
0.311737	-0.297852	-0.082550
0.214386	-0.345917	-0.087891
0.119476	-0.336914	-0.089264
0.166931	-0.359650	-0.117493
0.146332	-0.357971	-0.129242
0.103912	-0.366364	-0.144043
-0.108948	-0.364532	-0.157623
-0.342255	-0.371246	-0.170288
-0.480194	-0.360107	-0.192719
-0.544281	-0.370331	-0.223389
-0.334473	-0.358276	-0.208588
-0.182648	-0.366364	-0.232239
-0.159454	-0.384674	-0.269623
-0.088654	-0.399017	-0.271301
-0.086212	-0.375519	-0.250397
-0.178375	-0.377045	-0.284729
-0.129089	-0.370026	-0.309296
-0.082550	-0.398102	-0.330963
0.019989	-0.410156	-0.331268
0.057983	-0.399933	-0.343781
0.022736	-0.397186	-0.377045
0.136261	-0.391235	-0.409851
0.132141	-0.390625	-0.420990
0.053558	-0.409393	-0.445862
0.158844	-0.394135	-0.442047
0.118561	-0.384521	-0.461731
0.028381	-0.368195	-0.471344
-0.038147	-0.355682	-0.487061
-0.265350	-0.368042	-0.500946
-0.517578	-0.377808	-0.539246
-0.626373	-0.384827	-0.552521
-0.671234	-0.394440	-0.583038
-0.730743	-0.381317	-0.597229
-0.784149	-0.372925	-0.593414
-0.847931	-0.368500	-0.593262
-0.775146	-0.387268	-0.601959
-0.659027	-0.387573	-0.626984
-0.470276	-0.357971	-0.637970
0.023499	-0.354309	-0.660095
0.565338	-0.367432	-0.683136
0.989990	-0.334930	-0.692902
1.220551	-0.345306	-0.728607
1.368866	-0.292969	-0.711823
1.410980	-0.269623	-0.734100
1.412201	-0.284119	-0.758362
1.320038	-0.289917	-0.774536
1.154480	-0.265198	-0.776978
0.869751	-0.259399	-0.769958
0.491638	-0.224762	-0.783234
-0.088348	-0.254211	-0.798492
-0.724945	-0.250244	-0.829620
-1.242218	-0.253906	-0.837402
-1.713867	-0.225372	-0.819855
-2.037659	-0.250244	-0.845184
-2.076263	-0.221405	-0.851135
-2.008209	-0.220947	-0.873718
-1.640778	-0.205841	-0.899353
-1.243134	-0.215454	-0.913849
-1.009064	-0.183105	-0.913849
-0.768433	-0.171967	-0.918579
-0.438995	-0.154419	-0.941010
-0.146942	-0.148468	-0.914307
0.156403	-0.175018	-0.933685
0.404358	-0.153503	-0.946655
0.514832	-0.161743	-0.945282
0.617981	-0.154266	-0.960693
0.703888	-0.122070	-0.983276
0.794067	-0.129547	-0.982666
0.814056	-0.109863	-0.992737
0.718079	-0.104218	-1.014557
0.623932	-0.082397	-1.022949
0.533905	-0.077362	-1.020050
0.450439	-0.069733	-1.024170
0.425262	-0.050812	-1.053009
0.405121	-0.074463	-1.052551
0.299072	-0.043488	-1.053772
0.165253	-0.024109	-1.042480
0.120850	-0.005035	-1.046295
0.019073	0.005188	-1.059875
-0.104218	-0.017090	-1.078491
-0.236664	-0.019379	-1.097412
-0.385437	-0.020905	-1.103973
-0.491333	-0.017548	-1.092987
-0.481720	-0.042114	-1.090088
-0.411682	-0.046844	-1.080322
-0.259857	-0.054779	-1.085663
-0.168915	-0.043335	-1.100922
-0.216827	-0.047150	-1.113434
-0.299835	-0.025787	-1.097870
-0.391235	-0.022736	-1.085205
-0.483704	-0.027161	-1.087494
-0.526276	-0.020905	-1.075134
-0.496216	0.016632	-1.084747
-0.383301	0.015717	-1.102905
-0.220490	-0.010376	-1.113739
-0.115509	-0.014648	-1.127472
0.008545	-0.021210	-1.098938
0.107727	-0.013885	-1.121979
0.182037	-0.010223	-1.121521
0.183258	-0.017548	-1.126099
0.147858	-0.043030	-1.101685
0.063171	-0.089722	-1.119232
0.031891	-0.092926	-1.118011
0.010223	-0.122375	-1.133423
0.005188	-0.121765	-1.139832
-0.019073	-0.143890	-1.141205
-0.047913	-0.186310	-1.140137
-0.075226	-0.207520	-1.148529
-0.094147	-0.203705	-1.173248
-0.133514	-0.223694	-1.197662
-0.100555	-0.214996	-1.168518
-0.071716	-0.249481	-1.162109
-0.076447	-0.283508	-1.186066
-0.119324	-0.334930	-1.192932
-0.200653	-0.375824	-1.185760
-0.290680	-0.398712	-1.181793
-0.332642	-0.428314	-1.186981
-0.287476	-0.467224	-1.191101
-0.233307	-0.481415	-1.180725
-0.212860	-0.476837	-1.173859
-0.233307	-0.472565	-1.202240
-0.266113	-0.487671	-1.216736
-0.280457	-0.509033	-1.187592
-0.292053	-0.506897	-1.212616
-0.226135	-0.523682	-1.213074
-0.121460	-0.506134	-1.218567
-0.022125	-0.499725	-1.218109
0.069275	-0.505066	-1.228790
0.125580	-0.529175	-1.233215
0.183563	-0.532379	-1.220245
0.251770	-0.522766	-1.211548
0.254517	-0.531921	-1.197510
0.225067	-0.515442	-1.212311
0.208740	-0.525513	-1.187897
0.106049	-0.533447	-1.205902
0.018463	-0.563812	-1.230927
-0.102997	-0.560608	-1.206970
-0.182495	-0.526886	-1.212921
-0.266876	-0.556030	-1.218872
-0.343170	-0.572662	-1.239624
-0.363312	-0.553284	-1.218872
-0.339813	-0.568695	-1.233978
-0.281982	-0.567474	-1.251984
-0.187836	-0.552826	-1.208344
-0.103149	-0.551453	-1.234589
-0.075836	-0.575714	-1.254730
-0.000305	-0.566101	-1.240082
0.059662	-0.562897	-1.232452
0.083160	-0.586395	-1.242523
0.095520	-0.560760	-1.223602
0.104675	-0.582886	-1.226807
0.076294	-0.593719	-1.242371
0.033569	-0.621490	-1.230469
0.011139	-0.589294	-1.228943
-0.019379	-0.588531	-1.238861
-0.060120	-0.586090	-1.231842
-0.051422	-0.603485	-1.218414
-0.052948	-0.603333	-1.222534
-0.072784	-0.604401	-1.225433
-0.049744	-0.568848	-1.226807
-0.068970	-0.557404	-1.227264
-0.068817	-0.548553	-1.239777
-0.087738	-0.558624	-1.212616
-0.136414	-0.569305	-1.218414
-0.190277	-0.569458	-1.240845
-0.216675	-0.574036	-1.218719
-0.245361	-0.545349	-1.195831
-0.270996	-0.578613	-1.215210
-0.291595	-0.588074	-1.216736
-0.330658	-0.603180	-1.213989
-0.334473	-0.581665	-1.199951
-0.354156	-0.585937	-1.227570
-0.338135	-0.589752	-1.226959
-0.298462	-0.581512	-1.191406
-0.288696	-0.588074	-1.209106
-0.288696	-0.594177	-1.216431
-0.284729	-0.568390	-1.206970
-0.263672	-0.546875	-1.189880
-0.229950	-0.573883	-1.198120
-0.191956	-0.584259	-1.206512
-0.135040	-0.592194	-1.177826
-0.055542	-0.562134	-1.161346
-0.007782	-0.553436	-1.169128
0.043335	-0.572815	-1.158752
0.094452	-0.587006	-1.151428
0.087433	-0.594788	-1.130676
0.084229	-0.592499	-1.137695
0.054321	-0.584259	-1.130524
0.033722	-0.574646	-1.133575
0.022583	-0.550842	-1.105499
0.042725	-0.541229	-1.084595
0.015869	-0.525513	-1.109772
0.026855	-0.467987	-1.112976
0.035095	-0.469971	-1.114960
-0.004120	-0.429077	-1.109009
-0.016785	-0.396271	-1.085968
-0.040894	-0.393982	-1.099701
-0.026550	-0.345612	-1.075287
0.013733	-0.319824	-1.091766
0.025330	-0.282288	-1.104889
0.042725	-0.281219	-1.104736
0.094147	-0.293427	-1.092377
0.132904	-0.291290	-1.088409
0.173035	-0.311584	-1.088409
0.191193	-0.232086	-1.098785
0.177917	-0.042114	-1.122589
0.150299	0.214386	-1.102448
0.088348	0.444489	-1.112823
-0.010834	0.634460	-1.107788
-0.062561	0.870514	-1.096039
-0.105133	1.150360	-1.102753
-0.155029	1.479492	-1.127472
-0.180511	1.751404	-1.136017
-0.195465	2.039642	-1.113892
-0.201416	2.364349	-1.109009
-0.196228	2.660980	-1.125031
-0.199738	2.642670	-1.138458
-0.227814	2.649384	-1.139069
-0.248260	2.639465	-1.131744
-0.293121	2.648926	-1.133118
-0.341949	2.646942	-1.139526
-0.401001	2.619171	-1.154327
-0.467987	1.993561	-1.161957
-0.509186	1.528778	-1.159058
-0.527344	1.236420	-1.154480
-0.541534	0.859833	-1.139679
-0.516815	0.491791	-1.150665
-0.432739	0.228271	-1.151886
-0.357819	0.127106	-1.155396
-0.259705	-0.042877	-1.166992
-0.172119	-0.155945	-1.188507
-0.108032	-0.245819	-1.178131
-0.023499	-0.341187	-1.177673
0.069733	-0.400391	-1.185913
0.140381	-0.481262	-1.196442
0.215912	-0.617371	-1.193542
0.234680	-0.754852	-1.192780
0.223999	-0.930634	-1.193237
0.196838	-1.110535	-1.214905
0.120850	-1.321869	-1.217499
0.040588	-1.452789	-1.211548
-0.061035	-1.567841	-1.221313
-0.205231	-1.662292	-1.238251
-0.343475	-1.723480	-1.229553
-0.571899	-1.753693	-1.238708
-0.747986	-1.774445	-1.232147
-0.659332	-1.780243	-1.233368
-0.184174	-1.697540	-1.226349
0.626068	-1.664124	-1.241302
1.657410	-1.558990	-1.230164
2.595062	-1.481171	-1.231689
2.683411	-1.423340	-1.247406
2.687225	-1.343994	-1.264801
2.689362	-1.251526	-1.251373
2.159271	-1.194763	-1.277466
1.128540	-1.159973	-1.296082
-0.166321	-1.099396	-1.299896
-1.536255	-1.022644	-1.314697
-2.643433	-0.876617	-1.298065
-2.621155	-0.771027	-1.330414
-2.635193	-0.626068	-1.313782
-2.629547	-0.508270	-1.300354
-2.636414	-0.441895	-1.303864
-2.403870	-0.373077	-1.287384
-1.591187	-0.312347	-1.259766
-0.998993	-0.296021	-1.243591
-0.694580	-0.313110	-1.220245
-0.586090	-0.298462	-1.186981
-0.522156	-0.286865	-1.193085
-0.447540	-0.281219	-1.150665
-0.334778	-0.268097	-1.134186
-0.206146	-0.252075	-1.122437
0.003815	-0.251160	-1.113892
0.236664	-0.270386	-1.158447
0.540771	-0.276489	-1.169891
0.830231	-0.224304	-1.164551
1.081390	-0.204773	-1.172943
1.250153	-0.205536	-1.201782
1.311493	-0.193939	-1.214600
1.471863	-0.205383	-1.220551
1.748047	-0.167389	-1.214142
1.890259	-0.189667	-1.216888
1.877441	-0.199280	-1.191864
1.877594	-0.204163	-1.191864
1.864929	-0.210724	-1.165924
1.532135	-0.221710	-1.169281
1.053314	-0.183258	-1.142273
0.465393	-0.166473	-1.114044
-0.171051	-0.137177	-1.100311
-0.791473	-0.133209	-1.111298
-1.446686	-0.160065	-1.103363
-1.840820	-0.144501	-1.082153
-2.022705	-0.102997	-1.046295
-2.056580	-0.070953	-1.016541
-1.954956	-0.084991	-0.977783
-1.601105	-0.086823	-0.914764
-0.897827	-0.097351	-0.876465
0.200043	-0.081177	-0.801086
0.823822	-0.060730	-0.720520
0.473022	-0.026855	-0.663757
-0.077515	-0.059814	-0.582123
-0.214386	-0.068970	-0.511932
-0.315399	-0.066528	-0.455170
-0.290375	-0.030975	-0.371246
-0.210419	-0.021057	-0.329285
-0.011902	-0.001526	-0.267639
0.283203	0.007477	-0.239105
0.729523	0.014343	-0.189514
0.706024	0.045013	-0.179443
0.430908	0.052948	-0.160828
0.196075	0.062408	-0.116577
0.069427	0.058289	-0.107117
-0.564575	0.052185	-0.110779
-0.810242	0.096130	-0.103607
-0.329437	0.102539	-0.090027
-0.053101	0.106354	-0.085297
0.040283	0.086212	-0.072632
0.413666	0.095367	-0.042419
0.241852	0.106201	-0.013733
-0.302429	0.130310	0.003815
-0.196075	0.174408	-0.001526
0.276642	0.180969	0.012207
0.203400	0.178986	0.035706
-0.943451	0.192413	0.060272
-1.517944	0.211182	0.084534
-1.034241	0.261993	0.116272
-0.747833	0.279083	0.143738
-1.074219	0.274811	0.209045
-1.203766	0.286865	0.237579
-0.398560	0.287476	0.316162
-0.266571	0.284882	0.375977
-0.461273	0.322266	0.442352
0.323334	0.312958	0.504608
1.162720	0.294342	0.555878
1.685028	0.313263	0.625305
0.855255	0.346527	0.705261
-0.289459	0.355225	0.733490
-0.383148	0.387115	0.757599
-0.191956	0.396576	0.854645
-0.293579	0.420990	0.925446
-0.978546	0.402985	0.911713
-0.880585	0.446167	0.958557
0.888977	0.457764	1.054382
2.686005	0.474701	1.078186
2.682495	0.488739	1.092224
1.367645	0.510101	1.145020
-0.106201	0.508575	1.173706
-1.505127	0.503387	1.167297
-2.104187	0.514069	1.214905
-1.988220	0.544586	1.276398
-1.837616	0.537720	1.304779
-1.217651	0.522308	1.344757
0.433807	0.545044	1.322937
2.043304	0.544739	1.264648
1.451569	0.584564	1.288452
-0.281067	0.597534	1.308136
-1.138306	0.599365	1.369019
-1.422424	0.603485	1.361542
-0.434875	0.599823	1.296997
0.914154	0.655365	1.299286
1.312714	0.695648	1.318817
0.321655	0.672760	1.357422
-0.354462	0.673676	1.426697
0.154266	0.657501	1.488037
-0.063782	0.700226	1.519623
-0.577545	0.726166	1.558685
-0.597382	0.720215	1.575165
-0.701294	0.717010	1.606445
-0.220795	0.703278	1.646881
0.085297	0.721130	1.571198
-0.601807	0.728760	1.488647
-0.948944	0.752563	1.538239
-0.436249	0.762177	1.518860
-0.166168	0.756836	1.494598
0.005493	0.769501	1.477356
0.381165	0.800934	1.529388
0.407715	0.831757	1.593781
0.177307	0.815277	1.582794
0.247040	0.829010	1.546021
0.839996	0.819092	1.607971
1.410522	0.826263	1.663055
1.067810	0.822754	1.655579
0.918579	0.831146	1.657410
0.572815	0.856781	1.685638
-0.958862	0.855255	1.732330
-2.276611	0.841217	1.778564
-2.573242	0.823822	1.768341
-1.794281	0.820007	1.749725
-1.213989	0.834503	1.694641
-0.768738	0.867920	1.670227
-0.008087	0.872955	1.659546
0.358124	0.870361	1.719513
0.650482	0.908661	1.753082
0.573883	0.941925	1.769409
0.146027	0.898437	1.771240
0.746918	0.907593	1.747131
1.551208	0.913086	1.675720
0.947266	0.919037	1.644897
0.024872	0.908508	1.637726
-0.074615	0.916901	1.684113
-0.058899	0.923767	1.730499
-0.339203	0.906067	1.747131
-0.536804	0.910339	1.684570
-0.075073	0.918884	1.633606
0.298615	0.933990	1.678314
0.212250	0.932312	1.712646
-0.151520	0.925446	1.742096
-1.000977	0.929565	1.755219
-1.822510	0.941162	1.748047
-1.473236	0.955353	1.751709
-0.281982	0.949402	1.716766
1.365662	0.919495	1.663361
1.943207	0.926666	1.609039
0.704346	0.954285	1.621246
-0.730133	0.939331	1.570435
-1.145020	0.939484	1.592102
-0.716400	0.929871	1.579285
0.235291	0.914307	1.608887
1.195526	0.885010	1.604919
1.621246	0.902252	1.561584
1.168365	0.931854	1.561890
0.043640	0.936737	1.587067
-1.443939	0.908813	1.564178
-1.890564	0.890503	1.555939
-1.125183	0.904388	1.539307
-0.270691	0.932770	1.537018
0.103455	0.939789	1.523437
0.231934	0.901947	1.550751
0.569153	0.906067	1.517792
0.981293	0.892181	1.506195
0.312958	0.885620	1.488647
-0.987396	0.889893	1.445465
-1.549683	0.873260	1.469116
-1.355133	0.863342	1.440735
-0.850525	0.829163	1.456146
-0.435944	0.792542	1.422424
0.586395	0.784302	1.431732
1.441193	0.777130	1.412201
1.256561	0.771332	1.441193
0.847626	0.749512	1.396942
0.664062	0.741577	1.398010
-0.112457	0.727997	1.336212
-1.516418	0.737305	1.344299
-1.905518	0.727844	1.308289
-1.215668	0.715942	1.306915
-0.293579	0.706329	1.286316
-0.016632	0.646515	1.282349
-0.182648	0.638123	1.290283
0.140533	0.607910	1.265564
0.639191	0.574646	1.259308
0.373230	0.567169	1.295166
-0.084381	0.530853	1.277924
0.228119	0.499420	1.242065
0.663757	0.499878	1.210632
0.662689	0.475616	1.160431
0.798187	0.440369	1.150665
0.494995	0.433197	1.152802
-0.057373	0.419312	1.143951
-0.141907	0.401154	1.127167
-0.011292	0.407562	1.091156
-0.270081	0.353394	1.099701
-1.023712	0.318909	1.036835
-1.652527	0.294342	1.036835
-1.985931	0.260773	1.018219
-1.533813	0.250854	1.021118
-0.632629	0.209351	0.992737
0.126343	0.171509	0.955353
0.912628	0.166626	0.968781
1.508179	0.132294	0.937500
1.872864	0.114594	0.919037
1.228790	0.096130	0.899811
0.263672	0.079803	0.894623
-0.048065	0.049896	0.884247
-0.085602	0.031433	0.860291
-0.246735	-0.003052	0.849762
-0.783997	0.012054	0.822144
-1.427917	0.019836	0.799866
-1.586914	-0.018005	0.771027
-1.043243	-0.025177	0.724640
-0.310059	-0.068665	0.686646
0.413055	-0.067444	0.658875
0.356293	-0.072784	0.643311
0.056305	-0.100250	0.650940
0.204315	-0.131073	0.627289
0.131226	-0.178223	0.607452
0.017853	-0.170898	0.580292
0.035400	-0.183716	0.531464
0.191498	-0.178680	0.482788
0.367126	-0.187836	0.468140
0.078888	-0.197754	0.460358
-0.419159	-0.234222	0.437164
-0.216064	-0.213013	0.452118
0.294189	-0.209045	0.441132
0.367889	-0.184174	0.437622
0.263672	-0.221252	0.380554
0.328674	-0.218048	0.367584
-0.318909	-0.241241	0.338287
-1.110229	-0.264435	0.283203
-1.555786	-0.261993	0.272064
-1.351624	-0.263367	0.226746
-0.634766	-0.269470	0.224915
0.437164	-0.304413	0.216370
1.066132	-0.308838	0.163879
0.853729	-0.291290	0.158844
0.225220	-0.282898	0.121002
0.107574	-0.303040	0.074768
0.536346	-0.316010	0.040436
0.870819	-0.306396	0.045319
1.158752	-0.294342	-0.012360
1.518707	-0.271301	-0.044250
1.819611	-0.290527	-0.073395
1.247711	-0.283966	-0.117187
0.227966	-0.303040	-0.168152
-1.214600	-0.305328	-0.200806
-2.579193	-0.310059	-0.236359
-2.621613	-0.306702	-0.255890
-2.618408	-0.325470	-0.274048
-2.211151	-0.336609	-0.289764
-1.111298	-0.345612	-0.336761
0.028534	-0.359650	-0.392609
0.355682	-0.335846	-0.439911
-0.212555	-0.326080	-0.472565
-1.013489	-0.355988	-0.521698
-1.507721	-0.363770	-0.561218
-1.285400	-0.335541	-0.540924
-0.601196	-0.346832	-0.568085
0.279388	-0.319977	-0.514679
1.210327	-0.329742	-0.466614
2.042694	-0.342712	-0.442505
2.698669	-0.344086	-0.390472
2.681885	-0.331116	-0.297699
2.682343	-0.319366	-0.208588
2.372894	-0.329590	-0.126953
1.620636	-0.331116	-0.079803
0.846558	-0.336609	-0.033569
-0.012512	-0.360718	-0.019226
-0.788116	-0.361938	-0.016174
-1.288452	-0.375977	-0.035248
-1.575928	-0.356445	-0.033417
-1.791229	-0.372162	-0.075226
-1.902008	-0.364990	-0.120392
-1.961212	-0.341187	-0.122833
-1.745605	-0.345459	-0.079803
-1.242218	-0.340729	-0.081482
-0.579071	-0.339203	-0.102539
0.013275	-0.367126	-0.111237
0.470734	-0.340424	-0.108643
0.811462	-0.338593	-0.120697
0.958862	-0.341492	-0.136414
0.831909	-0.348969	-0.133209
0.480804	-0.344849	-0.094452
-0.064392	-0.357513	-0.088196
-0.583649	-0.349731	-0.102234
-0.834808	-0.331421	-0.078735
-0.915222	-0.306854	-0.091095
-0.770416	-0.331726	-0.126038
-0.550079	-0.361176	-0.140991
-0.395355	-0.349274	-0.142670
-0.170135	-0.336151	-0.134888
0.130463	-0.334320	-0.150452
0.379181	-0.316315	-0.202942
0.525360	-0.313721	-0.209656
0.503693	-0.310974	-0.259247
0.338287	-0.304413	-0.274506
0.102539	-0.325928	-0.305786
-0.085449	-0.317993	-0.318909
-0.193176	-0.336151	-0.348969
-0.289612	-0.339508	-0.335541
-0.334473	-0.366669	-0.364532
-0.260010	-0.346222	-0.398254
-0.263214	-0.349579	-0.433044
-0.286713	-0.342560	-0.448914
-0.298157	-0.316162	-0.479126
-0.249786	-0.327759	-0.499573
-0.160370	-0.315247	-0.513306
-0.038147	-0.309143	-0.560760
0.119324	-0.287628	-0.566254
0.146637	-0.301666	-0.592194
0.122223	-0.306854	-0.619965
-0.007477	-0.324249	-0.625153
-0.128784	-0.320740	-0.666809
-0.212708	-0.310211	-0.706635
-0.385590	-0.310669	-0.723114
-0.633698	-0.316772	-0.723724
-0.730133	-0.344238	-0.756836
-0.569000	-0.366058	-0.788727
-0.229492	-0.320892	-0.768280
0.094757	-0.286102	-0.781860
0.397186	-0.296783	-0.805359
0.639343	-0.284119	-0.800018
0.770569	-0.295868	-0.831909
0.788879	-0.272675	-0.844116
0.809174	-0.260315	-0.866699
0.838776	-0.221252	-0.854645
0.711365	-0.241089	-0.863647
0.504150	-0.229645	-0.872803
0.326385	-0.235901	-0.872955
0.057220	-0.231018	-0.873566
-0.209503	-0.220947	-0.883942
-0.377197	-0.206757	-0.896759
-0.583496	-0.194550	-0.854187
-0.858307	-0.188141	-0.870056
-1.054687	-0.190125	-0.894623
-1.105804	-0.182037	-0.930481
-1.197662	-0.168610	-0.951843
-1.284637	-0.162811	-0.963135
-1.183319	-0.144958	-0.970154
-0.902557	-0.131378	-0.957489
-0.505981	-0.137482	-0.963440
-0.067444	-0.108032	-0.950470
0.146484	-0.094147	-0.948792
0.256348	-0.101471	-0.967865
0.345001	-0.101776	-0.990906
0.351562	-0.084686	-1.020813
0.272522	-0.083618	-1.012878
0.125275	-0.102386	-1.008759
-0.037231	-0.118408	-1.020203
-0.033569	-0.118866	-1.018066
0.127106	-0.110626	-1.022644
0.193939	-0.100250	-1.065674
0.178680	-0.080261	-1.099701
0.173645	-0.040741	-1.081390
0.083313	-0.018005	-1.067963
-0.007935	-0.003510	-1.065216
0.026398	0.009155	-1.060944
0.154877	0.021667	-1.117859
0.283813	0.060730	-1.120758
0.328064	0.068970	-1.138000
0.429687	0.045319	-1.148071
0.724182	0.043793	-1.132355
0.961304	0.056763	-1.154785
0.997467	0.080414	-1.157837
0.886230	0.068054	-1.169281
0.589294	0.052032	-1.178436
0.143738	0.020142	-1.193390
-0.302124	0.001526	-1.232605
-0.628204	-0.008392	-1.225281
-0.750885	0.019073	-1.237183
-0.784912	0.006256	-1.244507
-0.918732	0.020142	-1.227417
-1.007690	0.035095	-1.220093
-1.030426	0.056610	-1.253052
-1.056366	0.066986	-1.276550
-1.092987	0.086823	-1.282654
-1.133423	0.082092	-1.318359
-1.172638	0.064545	-1.311340
-1.229858	0.078430	-1.285400
-1.254883	0.064392	-1.311646
-1.027222	0.060425	-1.296539
-0.633392	0.048981	-1.313477
-0.259399	0.010223	-1.319122
0.074310	-0.013428	-1.320496
0.341187	-0.029297	-1.363678
0.518799	-0.033722	-1.350861
0.599670	-0.029907	-1.379547
0.687256	-0.039673	-1.376495
0.780029	-0.042114	-1.369476
0.916595	-0.027313	-1.373444
1.125336	-0.024719	-1.382751
1.315460	-0.033722	-1.393127
1.380005	-0.047913	-1.405945
1.195679	-0.094604	-1.418762
0.843353	-0.137787	-1.430969
0.480804	-0.153656	-1.420441
0.187988	-0.154724	-1.401520
-0.121613	-0.195312	-1.420898
-0.465698	-0.226898	-1.409760
-0.824127	-0.286102	-1.407471
-1.140442	-0.300446	-1.400452
-1.312714	-0.317688	-1.399536
-1.254425	-0.338898	-1.382599
-1.138000	-0.407410	-1.374054
-1.053314	-0.404205	-1.387787
-0.963440	-0.421295	-1.418152
-0.733185	-0.402832	-1.408539
-0.474396	-0.404358	-1.427155
-0.258636	-0.415192	-1.408691
-0.104828	-0.430908	-1.427917
0.066681	-0.432892	-1.411285
0.297546	-0.438385	-1.424103
0.500031	-0.444794	-1.419220
0.668488	-0.441589	-1.415863
0.791168	-0.469208	-1.426697
0.838470	-0.497131	-1.457672
0.843506	-0.496521	-1.454773
0.824585	-0.498657	-1.481934
0.759125	-0.487061	-1.464081
0.536652	-0.503235	-1.476898
0.247498	-0.506744	-1.520996
-0.069733	-0.491028	-1.546936
-0.411530	-0.494995	-1.576080
-0.683136	-0.476685	-1.570892
-0.847778	-0.479279	-1.519623
-0.966187	-0.485992	-1.533203
-0.903931	-0.494232	-1.520844
-0.805817	-0.506439	-1.551819
-0.693207	-0.503540	-1.577911
-0.609283	-0.490723	-1.584167
-0.554352	-0.503693	-1.591034
-0.491180	-0.513306	-1.596222
-0.405121	-0.514069	-1.583862
-0.326538	-0.537567	-1.609497
-0.180359	-0.543060	-1.626892
-0.038452	-0.526123	-1.666412
0.048981	-0.526581	-1.680603
0.090332	-0.524292	-1.696320
0.130310	-0.511169	-1.706696
0.246735	-0.509644	-1.712189
0.406952	-0.500336	-1.735687
0.550690	-0.470276	-1.713867
0.554352	-0.480652	-1.731873
0.416260	-0.491791	-1.758423
0.140533	-0.516815	-1.787567
-0.109558	-0.523529	-1.806488
-0.251923	-0.514374	-1.812286
-0.297546	-0.525970	-1.817017
-0.300140	-0.537872	-1.824188
-0.243225	-0.548401	-1.838074
-0.256653	-0.559540	-1.835022
-0.290985	-0.550995	-1.855164
-0.204773	-0.541534	-1.865234
-0.078430	-0.542145	-1.876984
0.041351	-0.541992	-1.872559
0.145111	-0.565643	-1.908569
0.230560	-0.533600	-1.924286
0.349579	-0.513306	-1.954346
0.506744	-0.500336	-1.952209
0.525665	-0.499420	-1.969147
0.396423	-0.499115	-1.956940
0.258331	-0.493927	-1.954498
0.084076	-0.502319	-1.960602
-0.058289	-0.511322	-1.962891
-0.203400	-0.521851	-1.968689
-0.395203	-0.553436	-1.999512
-0.605164	-0.543518	-2.016144
-0.812531	-0.529327	-2.006073
-1.013031	-0.523224	-2.010193
-1.119537	-0.532837	-2.020111
-1.132507	-0.527344	-2.013550
-0.994568	-0.550690	-2.004547
-0.774078	-0.515442	-1.992493
-0.578308	-0.498657	-2.014771
-0.335541	-0.489044	-2.042236
-0.036163	-0.490875	-2.032623
0.272064	-0.504913	-2.046814
0.496368	-0.497284	-2.048035
0.682526	-0.495911	-2.053986
0.810242	-0.494232	-2.052002
0.851898	-0.478058	-2.057648
0.769043	-0.479279	-2.068481
0.649261	-0.453339	-2.062531
0.488281	-0.452423	-2.054596
0.314178	-0.424652	-2.025299
0.014343	-0.376587	-2.030640
-0.330658	-0.359497	-2.062683
-0.638580	-0.309296	-2.066193
-0.913086	-0.278015	-2.089386
-1.037445	-0.232697	-2.089844
-0.996552	-0.161896	-2.108154
-0.826874	-0.113525	-2.080383
-0.670013	-0.134430	-2.092743
-0.427399	-0.102234	-2.081451
-0.203552	-0.104065	-2.069397
-0.016022	0.015411	-2.073822
0.156708	0.209961	-2.096558
0.300140	0.435333	-2.099762
0.465088	0.664368	-2.099152
0.552521	0.832977	-2.102509
0.628357	1.035919	-2.135773
0.709229	1.369019	-2.131042
0.723419	1.711884	-2.105713
0.655975	1.987305	-2.105103
0.557861	2.251892	-2.100830
0.442963	2.605133	-2.088928
0.202179	2.646790	-2.096558
-0.120697	2.649231	-2.108002
-0.481415	2.654724	-2.113953
-0.857391	2.652740	-2.128296
-1.046906	2.649689	-2.121582
-1.075134	2.648010	-2.115173
-1.025391	2.472687	-2.122955
-0.881500	1.929932	-2.118378
-0.716400	1.585236	-2.125092
-0.554657	1.253815	-2.123413
-0.470581	0.816040	-2.140656
-0.420837	0.452118	-2.144318
-0.291748	0.272064	-2.123108
-0.163269	0.121460	-2.110291
-0.036621	-0.042114	-2.119598
0.120087	-0.180359	-2.124329
0.277557	-0.281372	-2.108002
0.406952	-0.338135	-2.094879
0.520020	-0.362549	-2.083435
0.572662	-0.458221	-2.054443
0.449677	-0.572815	-2.062836
0.202484	-0.768738	-2.079163
-0.028534	-0.962372	-2.078094
-0.263062	-1.179962	-2.076569
-0.472412	-1.316376	-2.062225
-0.594482	-1.455841	-2.065125
-0.650635	-1.540070	-2.032318
-0.738373	-1.599121	-2.023468
-0.774231	-1.661072	-2.009735
-0.743561	-1.664429	-2.013092
-0.541534	-1.686401	-2.018127
-0.131989	-1.646881	-2.019196
0.440369	-1.593781	-2.020874
1.083221	-1.546021	-2.008057
1.701050	-1.419678	-1.999817
2.118683	-1.318817	-1.978455
2.238770	-1.224823	-1.986389
2.127380	-1.153259	-1.965027
1.832428	-1.083069	-1.943512
1.408844	-1.029510	-1.963196
0.852203	-0.958405	-1.965942
0.210266	-0.891266	-1.947021
-0.514984	-0.783844	-1.961060
-1.256409	-0.691376	-1.960297
-2.060242	-0.577698	-1.969147
-2.644043	-0.396576	-1.941528
-2.622833	-0.296783	-1.937408
-2.614594	-0.241699	-1.915131
-2.306213	-0.200806	-1.907501
-1.631775	-0.224457	-1.911926
-1.156616	-0.178986	-1.867523
-1.065369	-0.135956	-1.853180
-1.160431	-0.143585	-1.826630
-1.184082	-0.135498	-1.784363
-1.063843	-0.147400	-1.768646
-0.824890	-0.164795	-1.759491
-0.399628	-0.145874	-1.744690
0.293274	-0.124664	-1.744690
1.167145	-0.147400	-1.734467
2.050323	-0.159454	-1.723328
2.641907	-0.150299	-1.699677
2.639008	-0.141296	-1.719055
2.151031	-0.138855	-1.736450
1.401978	-0.116730	-1.730652
0.361023	-0.094147	-1.739502
-0.599213	-0.132599	-1.736298
-1.195374	-0.119171	-1.700134
-1.113281	-0.081940	-1.694183
-0.514221	-0.057068	-1.678162
0.072021	-0.072784	-1.645813
0.710297	-0.055389	-1.610718
1.169739	-0.070953	-1.574554
1.328125	-0.044098	-1.575012
1.220245	-0.030212	-1.497192
0.938110	-0.036163	-1.475983
0.513153	-0.058136	-1.441498
0.143890	-0.065155	-1.383972
-0.436707	-0.047455	-1.356201
-1.158295	-0.030975	-1.307526
-1.335907	-0.013580	-1.231842
-1.058044	-0.024872	-1.176453
-0.457153	-0.005035	-1.097565
0.126495	-0.004272	-1.010132
0.213928	0.015869	-0.907593
0.238953	0.039978	-0.837250
0.084229	0.070343	-0.735626
-0.363312	0.076294	-0.658112
-0.877075	0.048981	-0.585785
-1.221161	0.071411	-0.539246
-1.164398	0.070190	-0.485840
-0.696259	0.082397	-0.433960
0.001526	0.085449	-0.390472
0.472565	0.080261	-0.355377
0.777435	0.079956	-0.332489
0.493317	0.100708	-0.308228
-0.217896	0.130310	-0.286865
-0.773315	0.125885	-0.292358
-0.668335	0.153503	-0.273743
-0.240631	0.158844	-0.250702
-0.181274	0.171356	-0.236206
0.142975	0.206146	-0.238342
0.967560	0.243988	-0.213470
0.830688	0.237427	-0.182953
0.163116	0.241394	-0.176392
0.112457	0.230713	-0.149384
-0.128479	0.248413	-0.124512
-0.561066	0.271759	-0.087891
-0.832977	0.277710	-0.070953
-1.029510	0.290833	-0.013428
-1.027527	0.276947	0.002899
-0.447845	0.282745	0.044708
0.309296	0.332489	0.110016
0.612183	0.353241	0.162659
0.672302	0.366058	0.237122
-0.553589	0.371704	0.306854
-1.392822	0.379639	0.366974
-1.093445	0.388641	0.417328
-0.683746	0.406799	0.487061
-0.909576	0.470734	0.550995
-0.786133	0.446930	0.623779
0.062103	0.446930	0.704346
0.832214	0.446472	0.726776
1.402435	0.481567	0.825806
1.131592	0.519104	0.871887
0.241241	0.508118	0.926056
-0.284882	0.505066	0.950470
-0.877838	0.494537	0.993958
-1.334534	0.526428	0.986176
-0.871124	0.525513	0.995636
-0.373840	0.545502	1.051178
0.122986	0.572815	1.081085
0.554810	0.565033	1.119080
0.680084	0.588379	1.193848
0.697479	0.629120	1.237183
1.276245	0.647430	1.255493
1.374664	0.666351	1.251984
0.678101	0.653381	1.244354
-0.716705	0.639954	1.266479
-1.405334	0.655670	1.342163
-0.936279	0.672150	1.378784
-0.401459	0.700989	1.457367
-0.068512	0.720978	1.440735
0.186920	0.666504	1.471405
0.712128	0.676270	1.443024
0.781708	0.699463	1.451111
0.053558	0.718689	1.538849
-0.483551	0.701447	1.667175
-0.625763	0.708160	1.761780
-0.423584	0.713196	1.757812
-0.356445	0.725098	1.705322
-0.249634	0.763245	1.674194
0.182953	0.808868	1.730804
0.316925	0.800018	1.754150
-0.437317	0.815582	1.787567
-1.639252	0.807800	1.867371
-1.637268	0.814667	1.886139
-0.274963	0.843353	1.877899
0.666351	0.838776	1.884308
0.847015	0.821075	1.896057
1.076202	0.831909	1.927643
1.144714	0.817566	1.936493
1.057434	0.832825	1.913757
0.566254	0.871735	1.887054
-0.192261	0.863495	1.938019
-1.026917	0.846100	1.983795
-1.592255	0.860291	2.016602
-1.638947	0.874481	1.992035
-1.039734	0.901031	2.015076
-0.090332	0.941467	2.048187
0.295105	0.948944	2.078705
0.335236	0.942383	2.080841
0.711823	0.924225	2.049103
0.545654	0.928040	2.053680
-0.174103	0.953979	2.082214
-0.448914	0.964508	2.072449
-0.429077	0.952606	2.041168
-0.633698	0.941467	2.046509
-0.519562	0.926971	2.023315
0.272675	0.925140	2.012177
1.142883	0.943756	2.024384
1.115417	0.971832	2.032471
0.030518	0.968170	1.999664
-1.238861	0.943146	1.982117
-1.743622	0.983887	2.012787
-1.188202	1.011047	1.999664
0.077820	1.011047	1.999969
1.002808	0.974426	1.974030
1.347961	0.970764	1.996765
1.206665	0.991974	1.991882
0.768127	1.014404	2.005920
0.074921	1.007233	2.020416
-0.130463	0.984802	2.030945
-0.110321	0.993347	2.083893
-0.278625	0.997925	2.067566
-0.782623	0.964050	2.025909
-0.873260	0.970612	2.015533
-0.348053	0.983124	2.005157
-0.131989	0.990601	1.994629
0.043793	0.987244	1.979218
0.439911	0.979004	1.988220
0.243988	1.036530	2.030640
-0.770416	1.046143	2.010651
-1.366577	1.023865	1.963043
-1.247711	1.022491	1.903534
-0.827179	0.985718	1.907501
-0.275116	0.984650	1.925812
0.168152	1.003265	1.921844
0.311279	1.023102	1.952515
0.351410	0.987549	1.953430
0.618591	0.982208	1.946716
0.616150	0.966034	1.929474
0.462799	0.948334	1.892242
0.193787	0.976105	1.857605
0.429077	0.955658	1.831512
0.846558	0.946655	1.852722
0.622406	0.922394	1.847992
-0.193939	0.935059	1.839447
-1.203003	0.942535	1.837006
-1.803436	0.938873	1.836548
-1.492462	0.923615	1.793518
-0.419159	0.874329	1.764984
0.103912	0.880890	1.779633
0.169830	0.877533	1.748962
0.553131	0.854950	1.746368
1.145630	0.841675	1.740723
1.322784	0.816803	1.741486
0.854492	0.777740	1.725311
-0.044556	0.755463	1.674500
-1.259003	0.773773	1.657715
-1.822205	0.741119	1.642151
-1.523132	0.713806	1.661835
-0.837402	0.661469	1.645813
-0.018158	0.633850	1.612396
0.830688	0.641022	1.616669
1.103210	0.638733	1.656799
0.960541	0.636749	1.666870
0.605774	0.607605	1.599884
0.508575	0.573273	1.577148
0.239868	0.545654	1.553955
-0.352478	0.519257	1.538696
-0.515900	0.508118	1.523590
-0.454102	0.465698	1.480865
-0.421295	0.423126	1.479034
-0.217743	0.358734	1.470032
0.264740	0.344086	1.417236
0.646667	0.347595	1.432037
0.350494	0.313721	1.381531
-0.523376	0.279236	1.388092
-1.062927	0.249176	1.362915
-1.530914	0.241547	1.386108
-1.762848	0.229645	1.343689
-1.395721	0.230408	1.327209
-0.016632	0.187378	1.296539
1.438904	0.155029	1.247711
2.094421	0.117187	1.256104
1.940155	0.099640	1.257935
1.090546	0.080414	1.224060
-0.114899	0.080566	1.235657
-1.358032	0.040283	1.222992
-1.734467	-0.003052	1.185913
-1.048584	-0.036926	1.147919
-0.180664	-0.039368	1.128693
0.043793	-0.080109	1.065063
-0.405731	-0.083923	1.056519
-0.892487	-0.105286	1.026764
-1.069183	-0.102692	1.000824
-0.303802	-0.132599	1.006165
0.575409	-0.096741	1.001587
1.120911	-0.118866	0.994263
1.361847	-0.143433	0.946960
1.534882	-0.175934	0.942230
0.816650	-0.205841	0.918121
-0.379639	-0.197296	0.916138
-1.226044	-0.198975	0.894165
-1.394806	-0.206299	0.875702
-1.017609	-0.249329	0.842285
-0.546722	-0.290070	0.838013
0.101471	-0.289307	0.819550
0.570984	-0.298157	0.807495
-0.012512	-0.288239	0.783234
-0.618744	-0.318298	0.731964
-0.312958	-0.323029	0.686340
0.279541	-0.316467	0.674286
0.608826	-0.325928	0.679169
0.741882	-0.292053	0.677948
0.625458	-0.272369	0.635681
0.091705	-0.296021	0.612030
-0.206299	-0.318451	0.581512
-0.162964	-0.324402	0.541382
0.142059	-0.306244	0.523376
0.579071	-0.320740	0.488892
0.642548	-0.351410	0.443878
0.583344	-0.362396	0.417480
0.088959	-0.362244	0.370636
-1.103821	-0.364685	0.314941
-2.091980	-0.350494	0.289612
-1.999054	-0.365448	0.279846
-1.142120	-0.391235	0.227509
-0.803986	-0.398865	0.197601
-0.656433	-0.394135	0.155640
-0.273743	-0.371704	0.120544
0.359650	-0.358582	0.086670
1.019440	-0.383301	0.025940
1.203461	-0.381317	-0.004120
0.530243	-0.386353	-0.050507
-0.664673	-0.378113	-0.097961
-1.702271	-0.374451	-0.103455
-2.297668	-0.368195	-0.106049
-2.115936	-0.428467	-0.089722
-1.188354	-0.436096	-0.075684
0.015106	-0.427856	-0.028229
1.333313	-0.426788	0.036163
2.416840	-0.413971	0.072937
2.677460	-0.413818	0.121918
2.682953	-0.411682	0.174713
2.319183	-0.407715	0.230865
1.329803	-0.392456	0.280609
0.374603	-0.360565	0.306091
-0.394440	-0.349579	0.338287
-1.007690	-0.364838	0.311890
-1.391602	-0.393219	0.300903
-1.298218	-0.374451	0.303650
-1.139221	-0.409546	0.276489
-1.001740	-0.386658	0.261078
-0.689087	-0.404510	0.245819
-0.226593	-0.406952	0.261688
0.041199	-0.427856	0.255737
0.040131	-0.407410	0.246429
-0.182037	-0.394745	0.254974
-0.551147	-0.383759	0.261841
-0.878143	-0.406799	0.255585
-0.867310	-0.402679	0.285492
-0.561523	-0.404358	0.297241
-0.187378	-0.372314	0.301666
0.095978	-0.375977	0.301971
0.290070	-0.370941	0.338135
0.345612	-0.363159	0.320740
0.424194	-0.394135	0.329285
0.536194	-0.394287	0.322571
0.612030	-0.360565	0.351715
0.602722	-0.367279	0.320892
0.546875	-0.396271	0.339508
0.406647	-0.391541	0.327606
0.149841	-0.386810	0.353699
-0.154419	-0.393219	0.296173
-0.464172	-0.417328	0.287628
-0.726624	-0.418701	0.275269
-0.895386	-0.415039	0.267487
-0.954437	-0.405884	0.254211
-0.869598	-0.395355	0.240631
-0.702972	-0.367737	0.219421
-0.466309	-0.351715	0.241547
-0.273590	-0.376434	0.180206
-0.095062	-0.379486	0.170441
0.034637	-0.378113	0.144501
0.086212	-0.376892	0.122070
0.125580	-0.390930	0.086517
0.138550	-0.382233	0.054169
0.160828	-0.393066	0.045319
0.181732	-0.407867	0.031586
0.098114	-0.405731	-0.009766
0.046844	-0.401459	-0.040436
-0.027924	-0.384064	-0.032043
-0.050659	-0.394897	-0.070801
0.008240	-0.393219	-0.090942
0.083160	-0.398102	-0.108337
0.157013	-0.377655	-0.122681
0.239563	-0.382233	-0.157318
0.298767	-0.339966	-0.163879
0.274658	-0.366516	-0.199280
0.226898	-0.373993	-0.210419
0.144348	-0.375519	-0.234070
0.035400	-0.369263	-0.247498
-0.073242	-0.381775	-0.258026
-0.172119	-0.402527	-0.271454
-0.265045	-0.434875	-0.291595
-0.294495	-0.427551	-0.275879
-0.326996	-0.420990	-0.313568
-0.300751	-0.432587	-0.312805
-0.250092	-0.393677	-0.337677
-0.226898	-0.419006	-0.346375
-0.211487	-0.404816	-0.364685
-0.210114	-0.408325	-0.390472
-0.195618	-0.396118	-0.419769
-0.184937	-0.369110	-0.416870
-0.157623	-0.371094	-0.419006
-0.158539	-0.399933	-0.445557
-0.143433	-0.395050	-0.446014
-0.148621	-0.398560	-0.466156
-0.148621	-0.393066	-0.470734
-0.149841	-0.397797	-0.477753
-0.142975	-0.414276	-0.499725
-0.097504	-0.427551	-0.520935
-0.005341	-0.439148	-0.534973
0.027161	-0.433044	-0.536804
-0.027618	-0.408783	-0.556793
-0.149994	-0.397797	-0.561371
-0.327301	-0.419464	-0.576172
-0.512238	-0.413818	-0.576172
-0.668335	-0.427094	-0.588989
-0.782318	-0.403442	-0.609894
-0.763245	-0.374908	-0.593567
-0.689697	-0.391998	-0.609589
-0.545197	-0.386200	-0.614624
-0.324249	-0.398865	-0.608521
-0.118713	-0.407867	-0.630493
0.109406	-0.408478	-0.632935
0.375977	-0.416870	-0.632477
0.711212	-0.431366	-0.656586
1.076965	-0.450134	-0.658417
1.436615	-0.442047	-0.664062
1.725311	-0.457153	-0.684662
1.906586	-0.441437	-0.690613
1.926270	-0.449371	-0.701294
1.742249	-0.436859	-0.710297
1.297607	-0.438843	-0.716095
0.671844	-0.411682	-0.724182
-0.002747	-0.404358	-0.743561
-0.628052	-0.395203	-0.739746
-1.211853	-0.413818	-0.765991
-1.594238	-0.405884	-0.778656
-1.779022	-0.421906	-0.789948
-1.852570	-0.426636	-0.788422
-1.863098	-0.410919	-0.792236
-1.840210	-0.410309	-0.801086
-1.734772	-0.412598	-0.792542
-1.528473	-0.443268	-0.840759
-1.242981	-0.459747	-0.876007
-0.902405	-0.461884	-0.883026
-0.558319	-0.448303	-0.890961
-0.160522	-0.420074	-0.889893
0.135956	-0.403290	-0.887451
0.337677	-0.417023	-0.919037
0.469666	-0.387726	-0.927277
0.568237	-0.327301	-0.920715
0.570068	-0.340118	-0.933990
0.498199	-0.338745	-0.956879
0.482635	-0.330048	-0.934448
0.538177	-0.321960	-0.952148
0.590515	-0.333710	-0.966644
0.530853	-0.300751	-0.980377
0.407562	-0.306702	-0.980377
0.267487	-0.313721	-1.007080
0.115509	-0.301361	-1.003265
0.052643	-0.292206	-1.013031
0.027618	-0.270691	-1.008911
-0.034485	-0.270538	-1.015472
-0.134888	-0.247040	-1.019287
-0.243225	-0.249481	-1.007996
-0.323792	-0.232086	-1.024017
-0.337677	-0.214081	-1.033020
-0.219116	-0.194550	-1.021729
-0.087738	-0.213165	-1.032257
-0.012360	-0.215607	-1.036682
-0.007782	-0.207214	-1.036835
-0.066223	-0.200348	-1.052246
-0.148315	-0.172577	-1.050720
-0.258789	-0.169220	-1.040649
-0.294342	-0.199432	-1.057739
-0.254364	-0.156708	-1.051941
-0.248871	-0.147095	-1.042633
-0.235748	-0.125275	-1.051025
-0.233612	-0.097046	-1.052704
-0.250092	-0.072784	-1.065674
-0.312958	-0.076904	-1.073151
-0.384521	-0.079041	-1.074066
-0.389709	-0.068665	-1.071014
-0.283966	-0.069580	-1.094208
-0.031891	-0.039825	-1.079559
0.234833	-0.045013	-1.095886
0.547943	-0.033417	-1.086121
0.749359	-0.051117	-1.073914
0.781860	-0.062103	-1.060028
0.665436	-0.086212	-1.085510
0.503235	-0.111847	-1.084595
0.290070	-0.139008	-1.087494
0.057983	-0.146637	-1.080170
-0.222931	-0.140686	-1.090851
-0.478210	-0.135345	-1.094208
-0.672302	-0.115662	-1.104126
-0.707245	-0.105438	-1.075287
-0.657501	-0.076447	-1.060944
-0.578613	-0.069733	-1.054535
-0.513611	-0.023041	-1.091156
-0.399628	-0.035858	-1.075439
-0.307617	-0.075226	-1.083984
-0.243073	-0.089111	-1.077423
-0.218506	-0.114288	-1.067657
-0.212708	-0.110474	-1.060791
-0.225372	-0.098419	-1.058197
-0.256805	-0.094299	-1.067352
-0.276031	-0.118866	-1.060028
-0.267334	-0.144501	-1.053925
-0.234985	-0.158691	-1.054993
-0.164948	-0.156097	-1.047363
-0.068207	-0.172882	-1.042938
0.017548	-0.213623	-1.035309
0.054321	-0.227966	-1.040802
0.056305	-0.246429	-1.018829
0.030060	-0.261383	-1.021118
0.041809	-0.254211	-1.035309
0.096893	-0.257721	-1.014252
0.140686	-0.284424	-1.035461
0.160828	-0.311432	-1.039886
0.177002	-0.340881	-1.029053
0.156555	-0.393829	-1.047516
0.078583	-0.427704	-1.038971
0.003662	-0.449524	-1.030426
-0.097656	-0.470886	-1.023254
-0.135345	-0.476685	-1.030884
-0.126190	-0.510254	-1.033478
-0.086060	-0.506744	-1.028290
-0.047302	-0.521088	-1.042938
-0.039062	-0.532379	-1.041718
-0.062866	-0.533142	-1.038055
-0.106049	-0.519409	-1.044769
-0.126038	-0.502777	-1.057739
-0.126038	-0.500031	-1.034698
-0.094452	-0.495148	-1.042328
-0.067749	-0.513153	-1.018677
-0.041504	-0.529785	-1.060028
-0.028229	-0.547180	-1.066742
-0.045013	-0.560760	-1.066742
-0.076599	-0.550079	-1.070251
-0.135651	-0.547638	-1.044769
-0.184784	-0.572052	-1.053467
-0.219574	-0.585480	-1.043549
-0.251923	-0.555420	-1.049194
-0.253754	-0.556793	-1.044922
-0.236511	-0.553894	-1.026611
-0.246582	-0.583954	-1.039124
-0.276184	-0.587311	-1.040497
-0.277863	-0.576019	-1.045990
-0.263672	-0.570068	-1.050568
-0.198517	-0.535126	-1.020355
-0.167236	-0.559540	-1.014709
-0.157471	-0.566711	-1.027069
-0.115662	-0.575104	-1.018219
-0.077820	-0.588837	-0.995178
-0.051422	-0.555420	-0.992889
-0.002289	-0.570984	-0.998077
0.034790	-0.577393	-0.994873
0.067596	-0.602875	-1.002808
0.069275	-0.608978	-1.022797
0.106049	-0.609283	-1.006622
0.101471	-0.588226	-1.007538
0.090942	-0.612183	-1.034241
0.070648	-0.608368	-1.020203
0.075989	-0.618591	-1.026611
0.084991	-0.590973	-1.020660
0.066986	-0.586548	-1.014404
0.094299	-0.549011	-1.010132
0.078583	-0.558624	-1.016235
0.043182	-0.583801	-1.016083
0.001221	-0.577850	-0.984802
-0.065002	-0.590820	-1.015320
-0.149078	-0.589600	-1.008301
-0.229797	-0.585327	-1.013794
-0.310364	-0.601196	-0.994110
-0.363617	-0.613251	-1.002655
-0.403290	-0.605316	-1.014557
-0.397797	-0.617828	-0.991821
-0.374603	-0.617371	-0.996399
-0.325623	-0.617981	-0.993347
-0.308685	-0.619965	-0.974426
-0.292206	-0.606995	-0.983276
-0.260315	-0.600739	-0.958099
-0.247040	-0.589294	-0.971222
-0.190125	-0.562592	-0.944061
-0.162659	-0.591888	-0.955200
-0.146637	-0.597687	-0.954132
-0.149078	-0.588074	-0.956573
-0.102081	-0.603485	-0.957184
-0.046844	-0.586548	-0.952911
-0.003204	-0.586395	-0.945282
-0.007782	-0.605164	-0.949707
0.014801	-0.625153	-0.950470
0.042725	-0.617065	-0.936432
0.057373	-0.617676	-0.935516
0.109711	-0.597687	-0.936890
0.167236	-0.597076	-0.930634
0.212555	-0.574188	-0.921021
0.243378	-0.559692	-0.929565
0.228577	-0.506592	-0.925293
0.208893	-0.488739	-0.922699
0.201569	-0.469818	-0.922546
0.139923	-0.443115	-0.910797
0.081635	-0.403137	-0.903015
0.012360	-0.393982	-0.896301
-0.070801	-0.337067	-0.891113
-0.147095	-0.283356	-0.906219
-0.200806	-0.294800	-0.893250
-0.228271	-0.296478	-0.886841
-0.266724	-0.293274	-0.889893
-0.270996	-0.270844	-0.895844
-0.250092	-0.181274	-0.877991
-0.239563	-0.012054	-0.895233
-0.217133	0.242615	-0.915222
-0.207672	0.472870	-0.920258
-0.195618	0.690918	-0.913696
-0.176697	0.885315	-0.918884
-0.147400	1.199188	-0.898437
-0.149689	1.531372	-0.946045
-0.135040	1.831970	-0.960236
-0.097198	2.088165	-0.952759
-0.081635	2.420807	-0.946045
-0.081329	2.655792	-0.949249
-0.098572	2.653198	-0.951233
-0.102997	2.659302	-0.961304
-0.126343	2.658234	-0.969391
-0.170288	2.651215	-0.982056
-0.201263	2.656403	-0.990906
-0.243225	2.639008	-0.992432
-0.295410	2.054749	-0.986786
-0.345001	1.658478	-1.015625
-0.408783	1.373138	-1.020660
-0.482635	0.982513	-1.031799
-0.519867	0.636444	-1.022644
-0.520020	0.398102	-1.023712
-0.483398	0.212250	-1.037750
-0.406342	0.027618	-1.025848
-0.295563	-0.175629	-1.023560
-0.202026	-0.316925	-1.030884
-0.056458	-0.405426	-1.029358
0.077667	-0.499573	-1.033325
0.173187	-0.577240	-1.029663
0.238800	-0.735626	-1.056519
0.275574	-0.910034	-1.057281
0.298004	-1.111450	-1.079102
0.313568	-1.354828	-1.076355
0.264740	-1.474915	-1.081390
0.195618	-1.581726	-1.086121
0.113525	-1.646881	-1.093750
-0.095367	-1.694946	-1.131592
-0.303040	-1.735382	-1.120453
-0.390930	-1.764984	-1.130829
-0.215149	-1.815491	-1.119385
0.113525	-1.778717	-1.142883
0.468140	-1.713867	-1.155396
1.000214	-1.675415	-1.166382
1.496887	-1.597137	-1.171722
1.764374	-1.514587	-1.171112
1.792908	-1.432495	-1.181183
1.502075	-1.357727	-1.223145
0.967102	-1.239166	-1.202698
0.239105	-1.181030	-1.214294
-0.515747	-1.135406	-1.240845
-1.097260	-1.042480	-1.253357
-1.429596	-0.923767	-1.226349
-1.678314	-0.786133	-1.272583
-1.841583	-0.669403	-1.290741
-1.911316	-0.477295	-1.264648
-1.795502	-0.412292	-1.262512
-1.382294	-0.378571	-1.262360
-0.731659	-0.302277	-1.241608
-0.316010	-0.298767	-1.243439
-0.365448	-0.291290	-1.212921
-0.738068	-0.278015	-1.175690
-1.237793	-0.242004	-1.152802
-1.583862	-0.276184	-1.149292
-1.729279	-0.290222	-1.128845
-1.642761	-0.284882	-1.125793
-1.245422	-0.275269	-1.096954
-0.531006	-0.260468	-1.116791
0.336914	-0.247650	-1.134033
1.163788	-0.223389	-1.145172
1.702118	-0.217896	-1.165009
1.901855	-0.191193	-1.154175
1.709442	-0.187225	-1.180573
1.399231	-0.188904	-1.185608
1.021881	-0.204010	-1.161499
0.725708	-0.196075	-1.139069
0.742035	-0.186005	-1.152191
0.869446	-0.169525	-1.123199
0.965729	-0.176392	-1.083221
1.065826	-0.194550	-1.058197
1.097260	-0.185547	-1.028290
1.024475	-0.170135	-0.995026
0.840149	-0.169830	-0.945129
0.502472	-0.130768	-0.894318
-0.074158	-0.105438	-0.831604
-0.752106	-0.151672	-0.793915
-1.146240	-0.102692	-0.737152
-1.069031	-0.079346	-0.649567
-0.633698	-0.053253	-0.554504
-0.355682	-0.046234	-0.473480
-0.083160	-0.063324	-0.383911
-0.015411	-0.050049	-0.294037
-0.236511	-0.047150	-0.213318
-0.493774	-0.049133	-0.139008
-0.841522	-0.038910	-0.063629
-1.271362	-0.039520	-0.002289
-1.093597	-0.048981	0.046997
-0.334778	-0.068665	0.074158
0.258484	-0.030060	0.111847
0.480804	-0.025330	0.133362
0.476379	-0.010529	0.133972
0.166779	-0.004425	0.148773
-0.201874	-0.002899	0.162659
-0.636139	0.034943	0.171509
-0.735016	0.048523	0.190735
-0.157318	0.085754	0.205688
0.593872	0.077515	0.198059
0.849304	0.079498	0.199432
0.547333	0.107880	0.224915
0.149841	0.119171	0.236511
0.137024	0.135651	0.250854
0.237427	0.131073	0.277100
-0.140381	0.117798	0.312347
-0.673065	0.129700	0.324097
-0.970154	0.135803	0.346375
-1.290131	0.135040	0.376282
-1.734161	0.157623	0.407562
-1.751862	0.185699	0.461121
-0.928497	0.169830	0.509033
0.108490	0.186462	0.579834
0.631409	0.229492	0.630646
0.744781	0.259247	0.708008
0.529938	0.267639	0.776215
0.018005	0.275116	0.827942
-0.583496	0.281219	0.884705
-1.154480	0.309448	0.933075
-1.640472	0.306702	0.965424
-1.345215	0.337677	1.062775
-0.280609	0.329285	1.119843
0.905304	0.325775	1.184845
1.538849	0.347443	1.238708
1.549835	0.384521	1.261444
1.264954	0.395660	1.293640
0.704346	0.399933	1.376343
-0.285492	0.417938	1.390228
-1.655426	0.409088	1.396942
-1.979218	0.431976	1.481018
-0.464172	0.456543	1.510468
0.922394	0.503082	1.535339
1.169281	0.489655	1.603851
0.940857	0.494537	1.660461
0.667114	0.505371	1.659088
-0.360413	0.515137	1.741943
-0.839844	0.516815	1.829224
-0.035095	0.515900	1.796417
1.161957	0.529633	1.792145
1.712036	0.529785	1.879883
0.822601	0.533600	1.879883
-0.367432	0.561829	1.907043
-1.105652	0.593719	1.923370
-1.266174	0.601807	1.908722
-1.574249	0.606995	1.871796
-0.624237	0.622559	1.919708
0.760040	0.632935	2.067413
2.074280	0.670013	2.169342
2.673645	0.670624	2.211761
1.502075	0.673065	2.157135
-1.406250	0.673981	2.100372
-2.621002	0.669403	2.042389
-2.265167	0.695038	2.143250
-0.740967	0.733490	2.290955
0.142059	0.709839	2.340393
0.231781	0.718689	2.411346
0.048218	0.718994	2.395782
-0.254211	0.731506	2.332458
-0.398560	0.759277	2.338409
-0.318146	0.780029	2.415161
-0.717163	0.796814	2.537079
-1.430817	0.771027	2.621460
-1.259766	0.783386	2.628479
-0.246735	0.809326	2.590790
1.073456	0.809479	2.544403
1.954498	0.836792	2.505798
1.608887	0.830994	2.485352
0.166168	0.824738	2.519684
-1.324615	0.835419	2.579803
-2.350616	0.850372	2.674255
-2.053680	0.853271	2.726288
-0.776367	0.847931	2.727051
0.566406	0.834198	2.724457
1.546478	0.816345	2.717438
2.069550	0.827179	2.711487
2.064209	0.842133	2.677155
1.079102	0.875092	2.727356
-0.773773	0.872650	2.722626
-2.008820	0.890350	2.723541
-1.965637	0.926208	2.721252
-1.048431	0.939026	2.724304
0.415802	0.937958	2.729034
1.481323	0.920105	2.717896
1.497498	0.949097	2.722015
0.905914	0.913544	2.712860
-0.303497	0.941315	2.694244
-1.260834	0.925751	2.718506
-0.844421	0.927277	2.726135
0.306244	0.930023	2.712555
1.140900	0.913086	2.719574
0.919037	0.929718	2.692108
-0.286102	0.950623	2.655640
-1.184540	0.967255	2.636566
-1.051636	0.966797	2.651978
-0.572052	0.974884	2.702484
-0.363159	0.986481	2.712402
0.077515	1.023712	2.688904
0.363464	1.018066	2.688904
0.264893	1.027832	2.712402
-0.118256	1.002960	2.692566
-0.900726	1.002045	2.727661
-1.215820	1.005096	2.731018
-0.549164	1.014252	2.699890
0.592194	1.013794	2.656250
1.138763	0.994263	2.683868
1.356659	0.986328	2.691193
0.902405	0.990601	2.662506
-0.341187	0.997772	2.631073
-1.062927	1.002808	2.624664
-1.180573	1.000519	2.623291
-0.868988	1.008911	2.631531
-0.004730	0.987091	2.643433
0.874786	0.996399	2.614594
1.018982	1.023254	2.624054
0.531311	1.045380	2.612610
-0.322418	1.009064	2.592773
-1.404724	1.022186	2.565613
-1.885681	1.010132	2.541046
-1.598053	0.990143	2.521057
-0.714874	1.010284	2.515564
0.500336	0.977631	2.502289
1.218109	0.951385	2.543793
1.015167	0.928497	2.512207
0.682678	0.920868	2.456055
0.721130	0.905304	2.416534
0.535278	0.919495	2.399445
-0.088348	0.924377	2.423553
-0.776825	0.899658	2.414551
-1.003113	0.868683	2.409973
-0.780487	0.880585	2.392731
-0.211334	0.883789	2.366943
0.674133	0.882263	2.377319
1.188354	0.843048	2.325897
1.065521	0.792999	2.345886
0.101624	0.793915	2.342072
-1.034241	0.773926	2.325287
-1.253204	0.758209	2.271118
-0.351257	0.703888	2.248383
0.075073	0.689087	2.261505
0.041962	0.639496	2.238464
0.073395	0.630341	2.205811
0.098419	0.615234	2.186584
0.206146	0.590515	2.163849
0.203857	0.558472	2.160645
-0.218506	0.533295	2.162018
-0.799103	0.505829	2.143402
-1.016388	0.490570	2.149353
-0.809784	0.494690	2.142029
0.300903	0.468140	2.103271
1.227264	0.431519	2.051239
1.303406	0.384369	2.046967
0.672302	0.370941	2.052917
-0.218811	0.364075	2.027740
-0.809326	0.345459	2.030487
-1.464386	0.296478	2.001495
-1.920319	0.247040	1.983490
-1.495514	0.223236	1.960907
-0.492706	0.206757	1.934814
0.769653	0.188904	1.901855
1.476135	0.187836	1.905670
1.123352	0.144501	1.862183
0.392914	0.087891	1.831818
-0.030975	0.084991	1.786804
-0.256805	0.096436	1.815643
-0.591583	0.087738	1.792755
-0.913391	0.054474	1.737823
-0.491180	0.022278	1.733856
0.021057	0.014496	1.728363
0.430603	-0.003052	1.720123
0.180359	-0.017242	1.697388
0.064392	-0.044861	1.683350
0.076752	-0.069275	1.690063
-0.138702	-0.083923	1.677856
-0.124817	-0.097351	1.621552
-0.088348	-0.106506	1.570129
-0.072632	-0.104065	1.589813
0.180511	-0.124817	1.561584
-0.120544	-0.146179	1.519012
-0.531464	-0.173340	1.514893
-0.470734	-0.166016	1.482849
0.104675	-0.184174	1.487579
0.218048	-0.183868	1.476440
-0.559235	-0.204010	1.436920
-0.512085	-0.208435	1.427612
0.550079	-0.247498	1.351624
1.251221	-0.260162	1.341553
1.071472	-0.254059	1.326294
0.566559	-0.272217	1.299896
0.015411	-0.257874	1.309204
-0.368500	-0.285797	1.260681
-0.775604	-0.289307	1.242828
-0.822906	-0.288696	1.233368
-0.671082	-0.311127	1.179352
-0.334778	-0.293732	1.148834
0.019073	-0.304871	1.121368
0.383301	-0.297852	1.097870
0.961609	-0.260468	1.065216
0.843201	-0.228729	1.027985
-0.085144	-0.264282	0.959320
-1.026917	-0.286865	0.897522
-1.294403	-0.293884	0.874634
-1.493988	-0.309906	0.839081
-1.774902	-0.306091	0.824280
-1.603546	-0.330505	0.795898
-0.784912	-0.354309	0.718536
0.421448	-0.386200	0.701599
1.372375	-0.384521	0.661316
1.444397	-0.373077	0.585937
0.655670	-0.359650	0.572052
-0.579529	-0.388184	0.545654
-1.437073	-0.410004	0.512390
-1.725464	-0.393524	0.527191
-1.507111	-0.379944	0.565643
-0.718231	-0.368805	0.569458
0.449066	-0.358429	0.631256
1.511536	-0.362854	0.684052
2.235870	-0.368195	0.712280
2.524719	-0.374908	0.789642
2.329254	-0.371094	0.836334
1.846313	-0.353851	0.878754
1.173706	-0.351105	0.916138
0.397949	-0.340576	0.945892
-0.439301	-0.367737	0.958405
-1.119690	-0.379486	0.931396
-1.494293	-0.344391	0.919037
-1.614075	-0.320892	0.904236
-1.378021	-0.327148	0.872955
-1.125488	-0.343323	0.852661
-0.876617	-0.353851	0.823975
-0.557404	-0.340118	0.823975
-0.219421	-0.320892	0.829315
-0.067749	-0.303345	0.832062
-0.163422	-0.310364	0.819092
-0.342865	-0.329895	0.815735
-0.525055	-0.348663	0.825653
-0.630798	-0.343781	0.825195
-0.536652	-0.313416	0.822449
-0.258789	-0.356445	0.819702
0.062408	-0.371246	0.829468
0.295105	-0.387726	0.823364
0.431671	-0.399017	0.802155
0.534973	-0.350037	0.825195
0.530396	-0.357666	0.808563
0.520782	-0.358429	0.798035
0.459290	-0.345764	0.777283
0.384827	-0.328522	0.748749
0.286102	-0.343323	0.713654
0.163269	-0.315857	0.718231
-0.004425	-0.335541	0.711517
-0.170746	-0.350647	0.678253
-0.328522	-0.348053	0.675507
-0.446472	-0.334778	0.648651
-0.508728	-0.343475	0.637817
-0.488739	-0.360870	0.638885
-0.447235	-0.364990	0.641479
-0.374146	-0.373383	0.600128
-0.341492	-0.387878	0.552979
-0.294342	-0.381317	0.555878
-0.200806	-0.354767	0.520020
-0.073547	-0.338287	0.487213
0.040131	-0.370331	0.465088
0.188141	-0.371857	0.438232
0.270844	-0.353394	0.434113
0.307922	-0.334625	0.419464
0.295563	-0.308075	0.389099
0.147858	-0.331268	0.389862
0.018005	-0.347137	0.359039
-0.094299	-0.344086	0.334930
-0.229034	-0.323639	0.322723
-0.274658	-0.336761	0.313721
-0.248566	-0.338898	0.287323
-0.184631	-0.366974	0.286102
-0.113831	-0.393829	0.254517
-0.051270	-0.385284	0.227051
0.007172	-0.359802	0.216522
0.008545	-0.343933	0.212860
-0.064240	-0.364532	0.180206
-0.093231	-0.374756	0.182495
-0.117187	-0.392151	0.151520
-0.128937	-0.341797	0.151215
-0.094147	-0.332794	0.152435
-0.051422	-0.344543	0.152435
-0.135193	-0.352936	0.114441
-0.179901	-0.348511	0.118713
-0.188751	-0.340881	0.097351
-0.198059	-0.340118	0.102386
-0.186005	-0.325470	0.093842
-0.152893	-0.320892	0.082092
-0.150146	-0.336761	0.078125
-0.202942	-0.346375	0.044403
-0.217285	-0.352936	0.029144
-0.178375	-0.368958	0.009766
-0.152893	-0.359802	0.003052
-0.162964	-0.388489	-0.018463
-0.072327	-0.371094	-0.021820
0.042419	-0.366364	-0.057983
0.113373	-0.365143	-0.071259
0.174713	-0.347290	-0.044861
0.194244	-0.358276	-0.076447
0.208740	-0.382080	-0.095978
0.160217	-0.381775	-0.097046
0.027466	-0.399170	-0.107422
-0.196991	-0.400848	-0.113373
-0.489349	-0.415039	-0.133057
-0.693665	-0.422668	-0.147552
-0.755310	-0.431824	-0.146942
-0.712891	-0.436707	-0.177155
-0.553436	-0.402374	-0.177460
-0.375977	-0.405273	-0.189209
-0.212250	-0.411682	-0.198975
-0.061035	-0.401611	-0.232849
-0.006714	-0.397644	-0.257416
0.195770	-0.389099	-0.268097
0.279388	-0.374756	-0.275574
0.457153	-0.358734	-0.295715
0.655670	-0.359650	-0.324554
0.836487	-0.374603	-0.326996
1.063538	-0.383453	-0.348663
1.343079	-0.375671	-0.345612
1.361237	-0.373993	-0.362091
1.166382	-0.393219	-0.374451
0.831299	-0.428009	-0.377960
0.263672	-0.429077	-0.388641
-0.334473	-0.425873	-0.413208
-0.761108	-0.431061	-0.413666
-1.098022	-0.427704	-0.438690
-1.322937	-0.432129	-0.461731
-1.356049	-0.411377	-0.496368
-1.429443	-0.416107	-0.516510
-1.445007	-0.368500	-0.517426
-1.417694	-0.365143	-0.528564
-1.291809	-0.387421	-0.545807
-1.072083	-0.389557	-0.561829
-0.715637	-0.401306	-0.565643
-0.329132	-0.411072	-0.567474
0.025177	-0.400696	-0.578461
0.253906	-0.390015	-0.578918
0.283356	-0.412598	-0.587463
0.252228	-0.425110	-0.576630
0.191956	-0.439758	-0.597382
0.222473	-0.443115	-0.609741
0.261230	-0.444794	-0.609741
0.381165	-0.466156	-0.631256
0.414124	-0.446320	-0.625916
0.316772	-0.447693	-0.616302
0.236359	-0.435486	-0.641632
0.145111	-0.408325	-0.647888
0.105133	-0.382996	-0.620270
0.063782	-0.412445	-0.635834
0.021515	-0.413361	-0.635986
-0.007629	-0.407715	-0.628510
0.028534	-0.368500	-0.629272
0.054779	-0.366669	-0.629120
0.053406	-0.354309	-0.603790
-0.027924	-0.359192	-0.617523
-0.017548	-0.346222	-0.607758
0.031586	-0.334625	-0.612488
-0.002136	-0.340118	-0.617981
-0.224762	-0.306702	-0.612946
-0.572205	-0.292969	-0.600128
-0.791931	-0.290527	-0.598297
-0.818024	-0.271301	-0.593414
-0.599365	-0.246124	-0.617981
-0.143738	-0.225677	-0.639954
0.262146	-0.210724	-0.628510
0.355377	-0.227966	-0.643158
0.408020	-0.226898	-0.647583
0.437012	-0.208282	-0.639801
0.448456	-0.219421	-0.651093
0.394135	-0.205231	-0.669861
0.356903	-0.214844	-0.655670
0.198822	-0.238647	-0.679779
0.005798	-0.279388	-0.692902
-0.117645	-0.255127	-0.690613
-0.162964	-0.224152	-0.680695
-0.195618	-0.210266	-0.681610
-0.208130	-0.199738	-0.693512
-0.214233	-0.189819	-0.688019
-0.131989	-0.157928	-0.688629
-0.183868	-0.152130	-0.702057
-0.278778	-0.127563	-0.710602
-0.388184	-0.087585	-0.722961
-0.609894	-0.048676	-0.726471
-0.718994	-0.061798	-0.761871
-0.686035	-0.053864	-0.779877
-0.680237	-0.069733	-0.780487
-0.575104	-0.043488	-0.774078
-0.370941	-0.094757	-0.775909
-0.158997	-0.078583	-0.768738
0.064392	-0.095673	-0.786285
0.157928	-0.124207	-0.821686
0.191193	-0.115662	-0.814209
0.220490	-0.115051	-0.829010
0.190735	-0.105591	-0.843201
0.220490	-0.147400	-0.853271
0.240631	-0.112152	-0.867615
0.128021	-0.061493	-0.868835
0.065613	-0.071564	-0.890350
-0.001831	-0.056610	-0.907288
-0.087128	-0.056458	-0.906219
-0.081635	-0.088196	-0.895996
-0.043793	-0.097656	-0.891876
0.007019	-0.074768	-0.883484
0.048370	-0.094757	-0.894318
0.004272	-0.104523	-0.894012
0.031891	-0.142212	-0.884094
-0.035400	-0.147552	-0.883179
-0.279388	-0.120239	-0.888672
-0.448608	-0.121155	-0.899353
