-1.438599	0.222473	-1.488953
0.202179	4.340668	4.527893
2.161713	1.710663	4.526062
-1.402740	1.073303	3.007507
0.179749	1.346741	3.292236
0.857544	2.968750	2.060852
3.973389	2.244568	2.507324
-2.661896	-1.737518	-2.633209
2.488861	4.360046	1.076508
0.158386	4.199371	3.653259
3.814087	3.124084	3.220978
0.587006	3.717194	2.917328
3.769989	0.313110	0.896759
-0.094757	3.509979	0.246429
1.708527	1.224518	0.360107
0.948944	-1.020660	-1.901550
4.622345	2.801971	1.185913
2.763824	1.831665	3.917084
2.969818	2.169647	1.520081
2.083282	2.187042	0.394592
1.577301	1.674347	0.013733
0.526733	2.339020	1.898804
0.269012	3.015137	1.792297
-0.007629	2.497101	0.480194
1.460724	1.099548	-0.116272
0.754089	1.828461	1.414642
1.497803	1.361847	0.496979
0.819092	0.205078	1.293945
0.478058	0.698242	2.348328
2.938080	1.779785	3.462677
2.679443	1.386871	0.397339
1.718445	-0.716400	-1.739349
2.519379	0.588379	2.044678
2.687988	2.138672	0.800018
3.110657	0.954590	0.831604
3.805695	0.724487	0.893555
-0.247650	1.593323	3.424988
-0.434418	1.916656	0.734406
0.690765	0.334473	3.209534
0.411682	2.410583	1.009369
1.564636	0.788116	1.983185
0.166473	1.837616	0.889740
-0.082703	1.602936	-0.393066
0.157318	1.094208	2.468567
-0.117645	1.486511	1.154327
0.199432	1.129456	-0.195465
0.374908	1.519623	0.882568
0.322418	1.585846	1.387634
0.305176	0.834503	0.234375
0.190887	2.268524	0.265961
-0.024414	0.169678	1.071014
-0.383606	1.687927	0.280914
0.157928	2.528381	0.439453
2.120972	0.894623	0.975952
1.958771	0.397644	0.791779
2.072754	1.782532	-0.065002
2.559357	1.829529	-0.178986
2.613068	1.077576	0.652618
0.107880	0.760193	1.033936
0.748444	1.404724	0.407104
-0.705872	1.784363	0.188751
0.371094	2.297058	0.472870
0.200500	2.164917	1.073151
1.212006	1.971130	0.649872
1.333618	1.761169	0.326996
1.221466	1.241455	0.180511
0.479584	1.045685	0.191498
0.950012	1.018219	0.858612
2.117920	1.189423	0.888519
1.459198	1.097717	1.118774
0.292358	1.134491	0.783691
0.005188	1.438904	0.318756
-0.225525	1.739044	0.418243
3.045807	1.876221	0.339966
2.637482	2.095337	-0.089874
2.521362	2.371368	0.292816
2.382812	1.568451	-0.154266
2.586060	1.374512	0.059052
-0.362854	1.042175	0.300446
-0.417633	1.476593	-0.086212
1.102905	2.333679	0.030975
0.256195	1.831665	0.028381
1.574249	1.201935	-0.037537
0.509186	1.602936	0.396881
0.088654	2.037659	0.212555
-0.225525	1.920776	1.062775
0.190582	1.143799	0.864868
0.708771	2.153320	1.380920
1.519623	1.736755	0.818176
0.917511	1.689453	0.989685
0.674286	1.941833	-0.203857
-0.283508	1.088715	0.045929
-0.471344	1.842499	-0.017548
-0.616455	1.369629	0.354004
1.498718	1.526184	1.351776
-1.234894	1.660461	0.549774
-0.168457	1.672974	0.481567
0.202637	1.797180	-0.115509
0.060272	1.336975	0.180969
-0.291138	1.699219	1.282349
-0.094147	2.071533	0.525513
-0.498657	0.744629	-0.100098
-0.312958	2.064056	0.637512
0.336151	1.694794	1.024170
0.230103	1.358948	0.339203
-0.124054	1.492920	-0.093384
1.819611	1.757050	0.741730
1.772614	1.792297	0.997772
0.625458	1.260376	-0.185547
0.099792	1.442871	0.149536
0.753021	1.721344	1.350708
-0.316010	1.959076	0.433044
-1.186829	1.495819	-0.248260
-1.363525	1.339417	0.747375
-1.901245	1.439819	0.109406
-1.093903	0.872192	0.311279
-0.815277	2.005768	1.358948
-0.452576	1.190643	0.188599
0.009003	2.052765	0.797119
0.146790	0.927582	0.295410
1.160583	1.744080	-0.163879
1.548157	0.750580	0.572052
1.781006	1.595154	-0.395966
1.629028	0.900574	0.658112
1.066284	1.254272	-0.586243
-0.222931	0.899353	0.791473
-1.733246	1.196136	-0.566864
1.664429	0.958405	0.694275
1.222992	1.123047	-0.453796
-2.314453	1.002808	0.508423
-1.789856	1.068573	-0.261993
-0.856781	1.224060	0.122070
-0.053558	1.505737	0.584564
0.217743	1.672668	-0.220184
1.266785	1.125031	1.241608
1.141510	1.894073	0.354156
1.559448	1.503448	0.930939
0.242462	1.152344	0.570374
-0.463257	1.167450	-0.415344
-0.281830	1.133575	0.583191
-0.488739	1.640778	-0.147858
-0.032501	1.981964	0.864410
-0.407715	1.306915	1.011810
0.072632	0.919342	-0.482178
-0.272217	1.314240	0.407867
0.344543	1.665344	0.565186
-0.616913	1.571198	0.199432
-1.608124	1.100464	0.682831
-0.543518	1.101837	-0.136108
0.750122	1.458130	0.254517
0.724792	1.081696	0.950775
0.397797	0.989380	-0.499878
1.055908	1.704102	0.225220
-0.277557	0.793762	0.877228
-0.137787	1.056213	-0.460510
0.005035	1.810913	0.347900
0.171204	0.959778	0.644836
0.477448	1.498108	0.122375
0.147705	1.386719	-0.017242
0.094604	1.025085	0.146790
0.321960	1.582489	0.932007
-0.676422	0.811768	-0.817566
-0.532074	1.807098	0.731049
-1.931000	0.870514	0.207367
-1.300507	1.786499	-0.042114
-1.954498	0.836182	-0.261536
-0.343933	1.759186	0.978699
-0.695038	0.852814	-0.492706
0.730133	1.785431	0.193329
0.114594	0.898895	0.074921
-0.124817	1.576385	0.623932
0.162811	1.293488	-0.762939
-0.695953	1.065826	0.353851
0.717926	1.916962	0.645142
0.671692	0.908356	-0.990601
1.174774	1.462860	0.491028
0.544586	1.577301	0.450592
-1.151276	0.790710	-0.881653
-0.964508	1.530457	0.316315
-0.329895	1.568756	0.439301
-0.868225	1.169281	-0.866852
-0.057526	1.267395	-0.112762
1.365509	1.621246	0.741577
0.758667	1.273651	-0.744629
0.160522	1.111450	-0.626068
-0.230865	1.332855	0.480347
-0.025787	1.758575	-0.112305
-0.940399	1.646271	-0.284424
-1.391296	1.031647	-0.179291
-1.799316	0.858917	-0.946960
-0.859985	1.345367	0.050964
0.238953	1.685944	0.439911
1.306458	1.578369	-0.472870
1.059265	1.978455	0.144806
0.724030	1.149139	-0.619507
0.305481	1.073151	-0.975189
-0.103760	1.013489	-0.231628
-0.211334	1.066132	-1.088562
-1.053925	1.059265	-0.109100
-0.293732	1.316376	-0.633545
-1.078796	1.229095	-0.520172
-0.546417	1.415558	-0.176392
-0.660400	1.294403	-0.783997
-1.071472	1.690216	-0.023956
-1.599274	0.972443	-0.932617
-1.196594	1.431427	-0.054932
-0.982971	1.262817	-1.116791
-0.108490	1.056671	-0.259247
0.644226	1.484833	-1.367340
1.061096	0.817108	-0.456848
1.689301	1.137390	-1.323090
2.004547	1.515808	-0.253906
1.439972	1.308746	-0.828705
0.711670	1.572418	-0.030823
-0.012207	1.776123	-0.720367
-0.360565	1.093750	-0.809631
-0.457306	0.901184	-0.800476
-0.304260	1.458282	-1.157379
0.016785	2.128754	-0.070190
-0.445557	1.528931	-1.086426
-1.051636	0.991974	-0.456238
-0.738373	0.910492	-1.373596
0.058441	1.418762	-0.285187
-1.009369	1.388550	-1.002045
-0.742798	1.356049	-0.655212
-1.215363	1.883240	-1.239624
-0.103912	2.180328	-0.027924
-0.777740	1.675415	-1.260834
-0.493622	1.462860	-0.377197
0.184021	1.522369	-0.831146
-0.017090	1.008453	-0.758209
0.364075	1.172028	-0.652161
0.336609	1.204987	-1.085052
0.157928	1.186371	-0.449219
0.125580	1.619263	-0.658722
-0.570068	1.236115	-1.111603
0.362854	1.762848	-0.309143
0.733795	1.959686	-1.058350
0.638733	1.965942	-1.038361
0.489349	1.576233	-0.322418
0.083008	1.014862	-0.989990
-0.310669	1.031799	-1.102295
-0.816193	1.472778	-0.507965
-1.208954	2.086945	-0.556030
-0.277252	1.788177	-1.200714
-0.257263	0.751953	-1.093597
-0.074005	1.528320	-0.232544
0.161743	2.066193	-0.584564
-0.528870	1.547241	-1.109314
-0.389252	0.890503	-1.178131
-0.393829	1.649323	-0.929108
-0.279083	1.767426	-0.415192
-0.125275	1.035767	-0.674133
-0.155182	2.053070	-1.159668
0.141754	1.126709	-1.218567
0.154877	1.966248	-0.913544
0.080719	1.169891	-0.673828
0.159760	2.071838	-0.547333
0.344238	1.325989	-0.571136
0.158386	2.092590	-1.289673
0.013275	0.951996	-1.386719
0.119171	2.224884	-0.912628
-0.008087	1.154633	-0.604401
-0.212250	1.677856	-0.584106
-0.283813	1.832581	-0.770111
-0.432892	1.060181	-1.127930
-0.275574	2.146301	-1.278381
-0.234680	1.514282	-1.296234
-0.472870	1.179352	-1.185455
0.060272	2.223511	-0.782623
-0.075531	2.237244	-0.875549
-0.039062	2.058411	-0.749359
0.091705	1.692505	-0.646210
0.102692	1.641083	-0.622864
0.030365	1.585693	-0.681305
0.053711	1.515808	-0.761414
0.102997	1.593933	-0.863190
0.139160	1.666718	-0.962524
0.117645	1.708984	-1.027374
0.170746	1.959534	-1.068268
0.109406	2.135468	-1.096344
0.068054	2.194519	-1.155090
0.010223	2.236633	-1.180115
-0.067139	2.184296	-1.176300
-0.076752	1.988373	-1.214294
-0.325470	1.431427	-1.324615
-0.086060	1.690674	-1.159515
-0.091705	2.147217	-1.121063
-0.107880	2.187958	-1.067352
-0.093689	1.866455	-1.026459
-0.167999	2.321930	-1.043701
-0.184479	1.943207	-1.078949
-0.193176	1.841736	-1.132660
-0.228729	2.253876	-1.240082
-0.192566	2.270203	-1.421967
-0.277863	1.865692	-1.475372
-0.111694	1.607819	-1.310425
-0.158539	1.691742	-1.072083
-0.186462	1.992493	-0.847168
-0.187531	2.312622	-0.736694
-0.189667	2.176056	-0.868378
-0.096588	1.755524	-1.083527
-0.109406	1.927795	-1.336365
-0.104523	2.335205	-1.442871
-0.100708	2.204437	-1.322937
-0.098877	1.790009	-0.973053
-0.099182	2.059174	-0.773468
-0.185699	2.384949	-0.854340
-0.177307	2.017975	-1.172028
-0.317078	1.706390	-1.436310
-0.164795	1.902466	-1.374359
-0.172882	2.178040	-1.046143
-0.099182	2.292938	-0.773315
-0.144501	2.136688	-0.823822
-0.112000	2.035522	-1.179047
-0.052490	2.145233	-1.442261
-0.078888	2.186432	-1.341553
-0.091248	2.234955	-1.033630
-0.078583	2.191772	-0.779266
-0.018921	2.094421	-0.788574
0.135193	1.788177	-1.045074
0.062103	1.241760	-1.300354
0.055695	1.257629	-1.443176
0.030518	1.830444	-1.201782
-0.010834	2.076874	-0.893250
-0.028839	1.239014	-0.732269
-0.048828	1.210327	-0.918274
-0.051575	2.056427	-1.153564
-0.061493	1.376801	-1.403046
-0.096283	1.111298	-1.394196
-0.116577	2.008209	-1.130524
-0.308228	0.859985	-0.846710
-0.141296	1.854401	-0.730286
-0.101013	1.178284	-0.879517
-0.075226	1.481323	-1.121368
-0.042725	1.914825	-1.331482
-0.044556	0.900726	-1.430969
-0.033875	1.932220	-1.298523
-0.024109	1.364746	-1.044006
-0.023193	1.512146	-1.071167
-0.008392	1.469879	-1.069489
-0.021057	1.461182	-1.068726
-0.048523	1.457520	-1.066589
-0.126343	1.458282	-1.072235
-0.136261	1.422729	-1.086884
-0.054932	1.439819	-1.072540
-0.030365	1.381378	-1.067352
0.000916	1.374817	-1.063690
-0.008087	1.367340	-1.046143
0.000610	1.409149	-1.047516
0.007629	1.405640	-1.068726
0.008698	1.406250	-1.069946
0.026855	1.410828	-1.060944
-0.012360	1.369781	-1.075592
-0.042572	1.380920	-1.073761
-0.089111	1.414948	-1.068573
-0.111389	1.452942	-1.068878
-0.135956	1.414795	-1.071777
-0.188599	1.403198	-1.085358
-0.198059	1.378021	-1.083832
-0.255127	1.383667	-1.100464
-0.253906	1.329193	-1.111450
-0.164795	1.343994	-1.074219
-0.151215	1.313171	-1.080780
-0.168762	1.306915	-1.070099
-0.199585	1.324310	-1.089325
-0.176392	1.345062	-1.095428
-0.169983	1.368103	-1.089783
-0.222931	1.392059	-1.085815
-0.180359	1.372833	-1.087341
-0.136719	1.362610	-1.085358
-0.120087	1.382751	-1.111755
-0.160370	1.469727	-1.116028
-0.227661	1.501007	-1.126556
-0.196075	1.591339	-1.119080
-0.175476	1.793976	-1.121521
-0.116577	1.951599	-1.097107
-0.167847	2.053070	-1.114197
-0.134583	2.194672	-1.119843
-0.113678	2.131653	-1.110077
-0.089417	2.012329	-1.106415
-0.032196	1.981964	-1.109314
-0.010986	2.091522	-1.117096
0.074158	2.233887	-1.125641
0.123291	2.417755	-1.117554
0.137939	2.550049	-1.107635
0.171051	2.629395	-1.087036
0.161743	2.594604	-1.095276
0.155640	2.624969	-1.107941
0.095520	2.643890	-1.121826
0.072632	2.648315	-1.123962
0.054626	2.659760	-1.115570
0.031281	2.657318	-1.103210
0.045776	2.656555	-1.114502
0.005646	2.639465	-1.127319
-0.020752	2.062836	-1.119537
-0.030823	0.979156	-1.117554
-0.079193	0.037689	-1.100769
-0.097961	-0.363312	-1.107330
-0.092010	-0.541077	-1.122437
-0.103760	-0.502319	-1.122742
-0.126801	-0.413818	-1.120911
-0.172882	-0.233307	-1.104126
-0.194702	-0.060730	-1.091614
-0.255432	0.047150	-1.096344
-0.241241	0.178833	-1.090851
-0.289764	0.310974	-1.108093
-0.292358	0.442810	-1.118164
-0.272064	0.471191	-1.104889
-0.279388	0.468597	-1.090393
-0.333405	0.435028	-1.108704
-0.339966	0.307159	-1.087799
-0.325470	0.131683	-1.098785
-0.334473	-0.101013	-1.103516
-0.295258	-0.208588	-1.073608
-0.263062	-0.242157	-1.063843
-0.244598	-0.275116	-1.051941
-0.212402	-0.272369	-1.063385
-0.180664	-0.403900	-1.056366
-0.128326	-0.564270	-1.061096
-0.050964	-0.646820	-1.058655
0.024261	-0.582123	-1.055145
0.107880	-0.522461	-1.047058
0.159149	-0.431671	-1.022491
0.235596	-0.338135	-1.035461
0.292206	-0.223236	-1.041260
0.269165	-0.051117	-1.026764
0.185089	0.080109	-1.033783
0.056763	0.177307	-1.007080
-0.172272	0.217438	-1.019287
-0.433350	0.264740	-1.027069
-0.672760	0.308533	-1.013031
-0.880890	0.375519	-1.013184
-0.967102	0.476532	-1.006622
-0.864716	0.584259	-1.002502
-0.699310	0.683289	-0.990753
-0.375824	0.766296	-0.998688
-0.034180	0.851288	-1.012573
0.182190	0.964661	-1.013947
0.214386	1.031799	-1.009369
0.120544	1.115570	-1.018677
0.031433	1.166992	-1.024475
0.012360	1.258392	-1.029053
0.158234	1.385498	-1.026306
0.439758	1.478271	-1.007690
0.772247	1.594696	-1.000824
1.043701	1.617737	-0.997467
1.208496	1.627808	-0.996552
1.180420	1.613922	-0.987244
1.007996	1.619720	-0.989990
0.759735	1.641998	-0.976410
0.466919	1.683350	-0.967712
0.055237	1.690674	-0.947266
-0.412292	1.661377	-0.937958
-0.887909	1.672058	-0.938568
-1.246490	1.700592	-0.932465
-1.345520	1.708069	-0.922241
-1.219940	1.698456	-0.928345
-0.875092	1.668854	-0.928802
-0.514069	1.661224	-0.925446
-0.189514	1.672821	-0.922089
0.067291	1.695862	-0.901947
0.133209	1.706390	-0.903473
0.103760	1.651001	-0.918121
0.039368	1.618042	-0.914459
-0.040588	1.635742	-0.914764
-0.079193	1.679840	-0.903015
-0.151215	1.688080	-0.910492
-0.272827	1.707306	-0.899963
-0.239410	1.710205	-0.885773
-0.182343	1.700592	-0.884247
-0.150146	1.725006	-0.884399
0.063782	1.789398	-0.864563
0.267487	1.779022	-0.853119
0.292664	1.762085	-0.824127
0.454254	1.743774	-0.819702
0.560303	1.747589	-0.809174
0.439606	1.750488	-0.786133
0.208588	1.772614	-0.763702
0.157013	1.749573	-0.723724
0.150909	1.724091	-0.681915
0.097656	1.709900	-0.645142
0.209045	1.732483	-0.591583
-0.075531	1.788025	-0.530243
-0.463715	1.794434	-0.477448
-0.442047	1.807098	-0.415039
-0.341187	1.799469	-0.353088
-0.175476	1.801910	-0.291901
-0.486908	1.838837	-0.228882
-0.630493	1.868896	-0.155487
-0.218353	1.863251	-0.087891
-0.016479	1.881561	-0.023041
0.000916	1.865540	0.050049
0.149536	1.878052	0.128479
-0.380402	1.893921	0.194550
-1.050110	1.922913	0.268097
-1.483917	1.891479	0.334778
-1.264496	1.829376	0.378418
-0.460358	1.845703	0.432739
0.850067	1.887360	0.476379
1.442566	1.928253	0.531769
0.928497	1.961517	0.573883
0.253754	1.960144	0.635681
-0.591736	1.945648	0.668182
-0.951538	1.963806	0.684814
-0.843048	2.002106	0.729828
-0.072479	2.013855	0.757904
1.040192	2.010040	0.776367
1.653442	2.027893	0.789337
0.942841	2.015533	0.815582
-0.654907	2.030182	0.823364
-1.812592	2.043152	0.841217
-1.714020	2.035828	0.868683
-0.462952	2.012177	0.865479
0.559235	2.023926	0.860748
0.890045	2.062073	0.879517
0.828247	2.082062	0.888672
0.491028	2.126770	0.907745
-0.111694	2.132416	0.902557
-0.863037	2.123871	0.890656
-1.099854	2.122345	0.873566
-0.445557	2.146606	0.857086
-0.491638	2.186432	0.864258
-1.100616	2.181244	0.833588
-0.881653	2.186279	0.836487
-0.030823	2.186432	0.834503
0.420074	2.195282	0.827332
0.014801	2.216644	0.859833
0.333710	2.222748	0.839081
1.134186	2.169495	0.825653
1.457977	2.168121	0.792694
0.956573	2.186584	0.787201
-0.581360	2.230377	0.795898
-2.178497	2.270050	0.810852
-2.197571	2.287445	0.797424
-1.160736	2.262726	0.793915
0.626068	2.243958	0.789032
2.494049	2.263031	0.779266
2.678680	2.303314	0.758514
2.301788	2.360840	0.757904
-1.183624	2.345428	0.747375
-2.605743	2.293549	0.748901
-2.512970	2.268677	0.753174
0.368195	2.273560	0.763397
2.383575	2.321320	0.785217
1.427155	2.341919	0.799561
-0.807800	2.323456	0.780640
-1.693268	2.313385	0.773468
-1.352081	2.318268	0.762634
-0.892639	2.345886	0.768433
0.048218	2.396240	0.792999
0.832520	2.396851	0.801392
0.489349	2.424164	0.833893
0.727692	2.376404	0.820465
1.022186	2.424316	0.820923
0.128632	2.449799	0.806274
-1.633453	2.407227	0.797424
-2.196655	2.400513	0.807648
-1.279144	2.384186	0.804596
-0.195770	2.360077	0.817566
0.566711	2.341156	0.846558
0.822449	2.384033	0.853577
0.330200	2.335815	0.825806
0.059052	2.300110	0.794983
0.699463	2.237854	0.809021
1.770477	2.268372	0.783081
1.259613	2.292938	0.788269
-0.637512	2.277527	0.772400
-2.160797	2.239685	0.793610
-2.148743	2.167969	0.787201
-0.836487	2.124481	0.759888
0.000610	2.134094	0.746155
0.226440	2.126923	0.754242
0.341797	2.107239	0.746460
0.756531	2.044373	0.735779
0.883942	2.003021	0.715179
0.891571	1.974945	0.712128
1.329651	1.954956	0.693665
1.100769	1.949310	0.698090
-0.469208	1.864624	0.663757
-1.634827	1.808624	0.639648
-2.102814	1.800385	0.653381
-1.682281	1.784515	0.645752
-0.618286	1.732635	0.623322
0.151520	1.714020	0.627594
0.004120	1.707001	0.633240
-0.155334	1.622620	0.604706
0.498810	1.610413	0.560150
1.912689	1.619720	0.532074
2.318115	1.641846	0.527344
0.380859	1.616364	0.526886
-2.019501	1.595612	0.521545
-2.606354	1.559296	0.521545
-1.643524	1.538544	0.519104
0.054016	1.545410	0.508118
1.028900	1.508026	0.502625
1.022949	1.466675	0.476227
0.072021	1.428375	0.457153
-1.065063	1.422729	0.441284
-0.819397	1.410065	0.429840
0.837708	1.401367	0.417938
2.624359	1.414642	0.426941
2.682953	1.412811	0.421753
1.840973	1.397400	0.411835
0.404205	1.391907	0.379181
-0.913239	1.434326	0.382233
-2.197113	1.399994	0.344238
-2.622223	1.382141	0.332489
-2.144928	1.330719	0.314178
-1.059265	1.323242	0.321198
-0.030823	1.306152	0.323334
0.659332	1.356659	0.322723
0.755615	1.340790	0.290070
0.642242	1.318054	0.254364
0.450592	1.312561	0.228424
0.412140	1.355591	0.226135
0.172577	1.373444	0.199432
-0.424805	1.387634	0.183868
-0.730438	1.404114	0.186005
-0.837250	1.382599	0.163422
-0.990906	1.372528	0.140533
-0.979614	1.367493	0.104218
-0.196075	1.359100	0.099335
0.597992	1.320953	0.086212
1.153870	1.287994	0.046082
1.131897	1.315765	0.039978
0.353851	1.314392	0.012054
-0.510406	1.342926	0.025635
-0.987854	1.329651	-0.003815
-1.246643	1.297760	-0.027466
-0.978241	1.269989	-0.049744
-0.162506	1.264801	-0.061493
0.623627	1.294708	-0.083466
0.837097	1.319733	-0.094910
0.578918	1.353302	-0.118561
0.386047	1.341095	-0.129395
-0.069427	1.305084	-0.153046
-0.550995	1.334686	-0.178223
-0.745544	1.344452	-0.200043
-0.573425	1.333008	-0.212708
-0.268555	1.320190	-0.244904
-0.096588	1.288147	-0.274200
0.015259	1.273193	-0.282288
-0.086517	1.284790	-0.293427
-0.286255	1.284027	-0.331726
-0.262299	1.264191	-0.356140
0.019531	1.219330	-0.380402
0.147095	1.222992	-0.413818
0.152893	1.226044	-0.458221
0.193787	1.278839	-0.465240
0.286713	1.304626	-0.505371
0.185699	1.302643	-0.514679
-0.095367	1.322021	-0.525360
-0.582733	1.316528	-0.552216
-0.782166	1.361084	-0.572510
-0.688019	1.343536	-0.600281
-0.252533	1.370697	-0.621033
0.298004	1.348419	-0.628967
0.693512	1.303558	-0.643616
0.815277	1.308899	-0.643005
0.666809	1.271210	-0.659027
0.371704	1.320953	-0.640411
0.038147	1.289062	-0.650635
-0.243683	1.255798	-0.656586
-0.562592	1.192932	-0.666809
-0.749664	1.222076	-0.649872
-0.712891	1.241302	-0.624847
-0.818634	1.277466	-0.619659
-1.100616	1.264191	-0.607452
-0.155792	1.214142	-0.602112
1.172791	1.218414	-0.587463
1.659851	1.266479	-0.595398
1.321869	1.268311	-0.592499
0.679779	1.245422	-0.598907
-0.242310	1.215820	-0.583038
-1.223755	1.212921	-0.596466
-1.685944	1.183319	-0.579376
-1.389465	1.183929	-0.573425
-0.664520	1.189270	-0.590973
-0.045319	1.172485	-0.565186
0.174713	1.176453	-0.559692
0.129547	1.174469	-0.565033
-0.085449	1.196747	-0.550690
-0.234222	1.219330	-0.569916
-0.231171	1.250763	-0.558319
-0.108337	1.269836	-0.562592
0.105591	1.235962	-0.567169
0.251770	1.213074	-0.574799
0.332336	1.229706	-0.588837
0.334625	1.291809	-0.584564
0.325623	1.250305	-0.590210
0.269470	1.212311	-0.617828
0.124359	1.191406	-0.606995
-0.004883	1.197968	-0.609894
-0.173035	1.198883	-0.610809
-0.291443	1.200562	-0.618744
-0.341949	1.154633	-0.641632
-0.386047	1.144867	-0.650940
-0.349579	1.184998	-0.638733
-0.308685	1.193695	-0.637360
-0.239105	1.220856	-0.675812
-0.149231	1.250610	-0.646057
-0.099945	1.258850	-0.662384
-0.069885	1.241913	-0.675964
-0.043793	1.281738	-0.685272
-0.018005	1.317596	-0.673065
-0.041199	1.287994	-0.702515
-0.022736	1.316681	-0.701599
-0.002441	1.284332	-0.702209
-0.050049	1.268616	-0.719757
-0.103607	1.246338	-0.729065
-0.113831	1.251526	-0.739136
-0.090637	1.237183	-0.761871
-0.017853	1.239777	-0.751953
0.039825	1.222992	-0.769196
0.100403	1.250305	-0.779419
0.108490	1.276550	-0.783691
0.098419	1.322174	-0.777740
0.057068	1.354828	-0.773468
0.005493	1.348572	-0.758057
-0.056763	1.343231	-0.789795
-0.111237	1.372528	-0.796204
-0.148315	1.404114	-0.805511
-0.183868	1.399231	-0.811005
-0.175323	1.384277	-0.808868
-0.165558	1.360016	-0.808105
-0.197144	1.369019	-0.816498
-0.203247	1.372070	-0.823822
-0.248566	1.395264	-0.813141
-0.295715	1.361847	-0.824127
-0.291901	1.358795	-0.832367
-0.261688	1.347046	-0.836945
-0.182495	1.399994	-0.832520
-0.141602	1.496124	-0.824280
-0.124359	1.545563	-0.818329
-0.137177	1.536865	-0.826874
-0.138855	1.520691	-0.843201
-0.096588	1.558685	-0.834045
-0.052032	1.562347	-0.838318
0.007172	1.567535	-0.829315
0.011139	1.564331	-0.821381
-0.006561	1.551819	-0.832672
-0.016479	1.541748	-0.828552
-0.074921	1.552887	-0.842896
-0.086212	1.611328	-0.831451
-0.126343	1.606903	-0.843201
-0.137329	1.544952	-0.850067
-0.138245	1.552124	-0.847168
-0.148621	1.554871	-0.826569
-0.122833	1.619415	-0.810394
-0.146332	1.615753	-0.815277
-0.112915	1.591797	-0.815735
-0.101471	1.575623	-0.811615
-0.103149	1.543274	-0.821075
-0.068054	1.530304	-0.811768
-0.054169	1.548462	-0.824585
-0.008087	1.534119	-0.802917
0.021973	1.474762	-0.797424
0.041199	1.417847	-0.799866
0.057068	1.388092	-0.796814
0.050659	1.368103	-0.779877
0.065765	1.363220	-0.775452
0.001221	1.306305	-0.794525
0.025940	1.267395	-0.780334
0.038300	1.207886	-0.754700
0.047150	1.164703	-0.765381
0.070496	1.143188	-0.762024
0.059357	1.110535	-0.749817
0.093842	1.095123	-0.743866
0.110626	1.081085	-0.743103
0.094452	1.049500	-0.763550
0.078583	1.071320	-0.758209
0.021362	1.055603	-0.740204
-0.034637	1.018219	-0.734406
-0.105133	1.019135	-0.730896
-0.145264	1.002960	-0.737305
-0.176697	0.988770	-0.715179
-0.191650	1.017456	-0.709381
-0.204315	1.013184	-0.693512
-0.246582	0.982819	-0.705719
-0.239258	0.946960	-0.711670
-0.231781	0.979919	-0.703278
-0.214539	0.997467	-0.710297
-0.189972	0.996399	-0.708313
-0.204010	0.995636	-0.694580
-0.184174	0.973511	-0.670929
-0.196686	0.949097	-0.668488
-0.207977	0.975342	-0.687866
-0.162201	0.977325	-0.678558
-0.142517	0.960388	-0.662842
-0.110779	0.953369	-0.677338
-0.079193	0.949097	-0.674744
-0.044403	0.957031	-0.646515
-0.019684	0.943604	-0.657654
0.022430	0.938416	-0.658112
0.021210	0.911713	-0.636597
-0.003357	0.893097	-0.642242
0.031586	0.873718	-0.635529
0.049133	0.909882	-0.629730
0.052948	0.917358	-0.618744
0.067749	0.927429	-0.618439
0.030060	0.919037	-0.610199
-0.017853	0.892029	-0.605316
-0.067139	0.878601	-0.610962
-0.110168	0.895844	-0.605164
-0.144806	0.916748	-0.611115
-0.191498	0.899963	-0.615997
-0.246582	0.879211	-0.622253
-0.295868	0.845642	-0.616760
-0.262146	0.850067	-0.598602
-0.296783	0.865784	-0.600891
-0.332947	0.877533	-0.607758
-0.285645	0.851288	-0.608521
-0.230408	0.848999	-0.596313
-0.150757	0.864716	-0.589905
-0.101624	0.889587	-0.580750
-0.030365	0.905151	-0.599213
0.032959	0.976410	-0.584564
0.047455	1.099243	-0.576172
0.070648	1.293793	-0.570374
0.048523	1.486511	-0.577240
0.030670	1.628876	-0.583344
0.055237	1.744537	-0.588989
0.042114	1.706848	-0.574799
0.013733	1.610260	-0.599976
0.001984	1.540527	-0.599365
0.010834	1.578979	-0.598907
-0.003357	1.749268	-0.594330
-0.032349	1.910706	-0.592194
-0.063934	1.994934	-0.619507
-0.056915	2.072144	-0.614319
-0.028687	2.094421	-0.610199
-0.065765	2.077942	-0.613556
-0.088501	2.128143	-0.614319
-0.110016	2.326813	-0.603638
-0.184021	2.500763	-0.605469
-0.213470	2.570343	-0.611877
-0.247345	2.611847	-0.623016
-0.239868	2.211914	-0.619659
-0.206757	1.653290	-0.597076
-0.217285	0.628052	-0.625610
-0.207062	-0.360413	-0.631866
-0.214081	-0.804901	-0.619965
-0.200500	-1.042938	-0.627747
-0.237122	-1.038513	-0.640106
-0.258789	-0.966034	-0.628357
-0.247803	-0.862885	-0.630798
-0.243378	-0.664215	-0.642700
-0.169983	-0.484314	-0.632629
-0.104523	-0.379944	-0.631714
-0.008087	-0.206299	-0.621948
0.094299	-0.048981	-0.621033
0.117645	-0.007172	-0.615845
0.128632	0.050659	-0.635376
0.141907	0.093384	-0.607452
0.090790	0.045013	-0.625305
0.059662	-0.119629	-0.614471
0.077515	-0.324554	-0.602570
0.121613	-0.504913	-0.602112
0.143433	-0.555725	-0.603485
0.162811	-0.633087	-0.577698
0.150909	-0.692902	-0.582123
0.132141	-0.747375	-0.582123
0.127258	-0.916138	-0.579681
0.073242	-1.052704	-0.578308
0.017548	-1.079559	-0.581818
-0.054932	-1.058197	-0.584869
-0.058441	-1.010742	-0.565338
-0.088501	-0.957336	-0.571747
-0.111084	-0.847015	-0.573120
-0.182037	-0.700226	-0.563202
-0.347443	-0.534668	-0.585022
-0.648804	-0.376587	-0.577850
-0.926971	-0.322571	-0.582886
-0.995636	-0.284271	-0.578156
-0.844879	-0.215454	-0.583038
-0.519867	-0.172424	-0.580444
-0.083618	-0.093384	-0.582733
0.199280	-0.039520	-0.582733
0.350800	0.048981	-0.588531
0.234070	0.108490	-0.571899
-0.058136	0.203857	-0.592651
-0.306854	0.309601	-0.570068
-0.380554	0.383759	-0.569763
-0.221252	0.426025	-0.581818
0.114899	0.482483	-0.558777
0.402832	0.567780	-0.549774
0.563812	0.704651	-0.535431
0.591278	0.839386	-0.532074
0.494537	0.946350	-0.519714
0.311432	1.013489	-0.508270
0.141144	1.043396	-0.496368
-0.086517	1.052551	-0.480347
-0.382690	1.082611	-0.472565
-0.655365	1.122437	-0.447845
-0.872955	1.079559	-0.454559
-0.930481	1.078033	-0.450439
-0.826569	1.076508	-0.440521
-0.649872	1.121979	-0.421143
-0.420837	1.116028	-0.430145
-0.209198	1.147003	-0.423889
-0.007477	1.159363	-0.397797
0.112152	1.116486	-0.388336
0.188904	1.105804	-0.403900
0.236664	1.146698	-0.400696
0.225525	1.169128	-0.378418
0.288239	1.118011	-0.381165
0.307770	1.120911	-0.369568
0.346069	1.110229	-0.347900
0.403290	1.096954	-0.325317
0.383301	1.096649	-0.319214
0.358582	1.110687	-0.305481
0.267487	1.098328	-0.307770
0.258026	1.087799	-0.297546
0.219879	1.112518	-0.269165
0.149078	1.141052	-0.256042
0.120850	1.154327	-0.244141
0.029144	1.170349	-0.203400
0.257416	1.167145	-0.201111
0.314941	1.185913	-0.169983
0.146942	1.223907	-0.167847
0.077820	1.236267	-0.155182
-0.446320	1.250458	-0.125275
-0.808563	1.224213	-0.074310
-0.957489	1.215057	-0.043182
-1.068420	1.203156	0.005341
-0.840912	1.217804	0.065002
-0.148773	1.239471	0.109406
0.184937	1.241760	0.169830
-0.070648	1.235809	0.246277
-0.709534	1.216431	0.298920
-1.117096	1.242371	0.356140
-0.810242	1.274872	0.410919
-0.533142	1.289215	0.483398
-0.229492	1.293335	0.556183
0.274811	1.308441	0.608521
0.973511	1.301727	0.682983
1.569824	1.346436	0.730438
1.268005	1.355896	0.780945
0.196075	1.349030	0.851746
-0.885468	1.349335	0.923309
-1.672668	1.356812	0.968475
-1.598816	1.346741	1.011810
-0.732727	1.345978	1.056671
0.379028	1.387634	1.113434
1.880951	1.357574	1.132812
2.202148	1.366425	1.176300
1.216888	1.358185	1.197510
-0.494690	1.413116	1.233826
-2.017975	1.427002	1.255951
-2.272491	1.451263	1.298218
-1.729126	1.446991	1.301575
-0.403900	1.440277	1.326294
0.990601	1.469574	1.327972
1.387177	1.472931	1.325531
1.010437	1.541290	1.356201
0.133514	1.539764	1.341095
-1.479645	1.551514	1.352997
-2.187347	1.522980	1.325684
-1.288452	1.525879	1.348419
0.323944	1.548004	1.341705
1.759186	1.558380	1.330719
2.680969	1.558228	1.319122
2.178192	1.532440	1.286163
0.293579	1.559296	1.309662
-1.911469	1.592560	1.301880
-2.621613	1.579742	1.257172
-2.569733	1.605377	1.289368
-1.190033	1.591949	1.282043
0.160980	1.575012	1.264954
0.739441	1.625214	1.251831
0.758209	1.639557	1.222076
0.898895	1.633759	1.205292
1.620331	1.661224	1.207886
1.808929	1.680145	1.204529
0.600739	1.670990	1.177979
-0.979462	1.679687	1.196289
-1.037140	1.733398	1.199341
-0.414886	1.708221	1.172638
0.132141	1.715546	1.150360
-0.652313	1.697845	1.143188
-1.509705	1.732178	1.159668
-1.220245	1.741638	1.133881
-0.875092	1.755676	1.138153
-0.124207	1.797791	1.154480
1.456604	1.803284	1.196289
2.705078	1.778870	1.183472
2.683411	1.791382	1.156311
2.330170	1.818085	1.160126
0.013885	1.802826	1.173401
-1.633148	1.765137	1.175995
-2.646179	1.754761	1.194916
-2.620850	1.734467	1.204529
-2.622833	1.731415	1.233521
-1.088867	1.754150	1.222076
0.932617	1.738739	1.231995
2.325897	1.732483	1.250305
2.690430	1.729736	1.261902
2.688141	1.742554	1.249847
1.970673	1.782990	1.283112
-0.406799	1.799316	1.277924
-2.677460	1.809540	1.312408
-2.622986	1.756744	1.324005
-2.630005	1.742401	1.301575
-0.674438	1.750641	1.313934
1.240540	1.742706	1.329193
1.523285	1.712341	1.314697
1.166077	1.715240	1.345367
0.847626	1.670837	1.337891
0.448151	1.665802	1.380157
0.718842	1.640472	1.369324
0.691833	1.597900	1.391602
0.551300	1.521301	1.367950
-0.549622	1.472931	1.339111
-1.853638	1.466675	1.348114
-2.044678	1.431732	1.336975
-1.696014	1.427765	1.352386
-0.682678	1.379852	1.333771
0.419769	1.327515	1.342621
0.651855	1.278229	1.331482
1.168365	1.262817	1.304779
2.184601	1.256561	1.319580
2.126465	1.236572	1.298218
0.193176	1.194458	1.325378
-2.032318	1.166382	1.310272
-2.624512	1.113892	1.290283
-2.605896	1.097565	1.303406
-1.633453	1.096954	1.276093
-0.510406	1.048584	1.258850
0.191803	1.009827	1.235962
-0.119781	0.978699	1.208954
-0.322876	0.974274	1.188660
0.811157	0.993500	1.172333
1.583710	0.977631	1.156464
1.404877	0.955200	1.142426
0.495605	0.898437	1.124725
0.204163	0.873260	1.097717
0.737152	0.900421	1.080322
0.265656	0.899506	1.067810
-0.953217	0.876923	1.035919
-1.340485	0.860138	1.010132
-0.489502	0.827179	0.993958
0.756989	0.814514	0.989990
1.130219	0.793457	0.966797
0.476379	0.807343	0.947266
-0.235596	0.761414	0.914001
-0.927429	0.730133	0.889435
-0.627441	0.734100	0.864258
0.200806	0.752563	0.868530
0.479584	0.760040	0.846405
0.047760	0.767822	0.832672
-1.113281	0.780029	0.820007
-1.652069	0.739899	0.792084
-0.469666	0.757141	0.744019
0.780640	0.756226	0.711060
1.369781	0.767365	0.691681
0.844574	0.753021	0.686951
-0.334015	0.731506	0.648346
-0.077515	0.694427	0.628204
0.580902	0.708618	0.636139
-0.298309	0.724640	0.618896
-1.228180	0.703735	0.582275
-1.123657	0.655670	0.570984
-0.039673	0.628967	0.549927
1.137543	0.659027	0.534058
1.275787	0.657501	0.499115
0.428619	0.680237	0.493469
-0.175323	0.684357	0.505524
-0.140381	0.693359	0.491333
-0.169678	0.670471	0.483704
-0.272217	0.688477	0.469818
-0.608063	0.716705	0.473175
-0.638885	0.702820	0.441132
-0.245819	0.661469	0.418701
0.104370	0.678253	0.400543
0.331879	0.665741	0.396729
0.464020	0.661926	0.392761
0.331116	0.657806	0.377808
-0.122528	0.641479	0.367279
-0.617523	0.621490	0.352020
-0.630951	0.629730	0.352478
-0.212860	0.633087	0.324097
0.115356	0.656891	0.324707
-0.019684	0.696869	0.305481
-0.212860	0.697021	0.289459
-0.207825	0.655365	0.256348
-0.129700	0.683136	0.229492
-0.027618	0.713806	0.218506
-0.227814	0.723724	0.183716
-0.525055	0.700073	0.161896
-0.585327	0.683746	0.144196
-0.699158	0.653687	0.118866
-0.848236	0.629425	0.090637
-0.646210	0.660706	0.071716
0.253143	0.654602	0.038605
0.937653	0.628052	-0.003052
1.477509	0.589142	-0.039520
1.563873	0.589905	-0.066071
1.163788	0.618286	-0.106201
0.450897	0.638580	-0.113983
-0.321960	0.648804	-0.124207
-0.557556	0.641479	-0.147095
-0.194244	0.624237	-0.155945
0.099030	0.633850	-0.189819
0.161438	0.664825	-0.222321
-0.099487	0.665894	-0.210876
-0.598602	0.643158	-0.203247
-1.089783	0.639343	-0.212097
-1.407928	0.591278	-0.218811
-1.451721	0.601196	-0.191498
-1.269836	0.619812	-0.208435
-0.843658	0.598602	-0.202942
-0.356598	0.528564	-0.214996
0.030518	0.551910	-0.200653
0.405426	0.573273	-0.182037
0.650024	0.560150	-0.175323
0.720215	0.604706	-0.166931
0.643768	0.605469	-0.129547
0.370178	0.596313	-0.138245
0.119934	0.572662	-0.136719
-0.003357	0.611267	-0.129547
0.032654	0.623169	-0.124054
0.587158	0.600586	-0.108948
0.711212	0.602570	-0.118103
0.379333	0.587921	-0.093536
0.028687	0.579529	-0.101624
-0.455322	0.587921	-0.093231
-0.887604	0.599823	-0.072479
-0.807648	0.575714	-0.080109
-0.312958	0.546112	-0.063934
0.110321	0.552216	-0.077362
0.072479	0.579376	-0.062714
-0.404663	0.591888	-0.071564
-0.792999	0.610504	-0.070801
-0.920563	0.601349	-0.067139
-0.750885	0.562286	-0.067749
-0.436401	0.573578	-0.068054
-0.103149	0.610504	-0.088501
0.186310	0.605621	-0.089722
0.358429	0.619202	-0.076752
0.437775	0.605316	-0.100403
0.458832	0.588989	-0.104523
0.440216	0.579529	-0.112000
0.471039	0.588379	-0.094910
0.370483	0.587616	-0.120544
0.225067	0.548553	-0.137329
0.012970	0.541534	-0.149078
-0.163116	0.539246	-0.145264
-0.275269	0.565338	-0.168304
-0.345459	0.598907	-0.174561
-0.361176	0.607910	-0.156250
-0.384979	0.608978	-0.185547
-0.377502	0.594177	-0.183258
-0.327148	0.642395	-0.207672
-0.267944	0.660858	-0.220642
-0.212097	0.632324	-0.240173
-0.164642	0.638580	-0.225525
-0.071259	0.641174	-0.236511
0.003815	0.630188	-0.259247
0.094299	0.662384	-0.256348
0.167542	0.680389	-0.259857
0.191193	0.700073	-0.278778
0.162964	0.701294	-0.292511
0.127869	0.688782	-0.296783
0.110779	0.760345	-0.285950
0.066681	0.767212	-0.291748
-0.014191	0.790253	-0.312653
-0.003510	0.794678	-0.323334
-0.009308	0.759277	-0.318756
0.011444	0.780487	-0.344391
0.008545	0.816040	-0.361481
-0.045319	0.825348	-0.378876
-0.081482	0.859222	-0.361328
-0.152283	0.819244	-0.370178
-0.205841	0.761566	-0.381927
-0.260925	0.768127	-0.371246
-0.320282	0.795441	-0.354919
-0.317535	0.839539	-0.357056
-0.319519	0.826569	-0.366364
-0.280914	0.816956	-0.384216
-0.249023	0.866089	-0.379181
-0.239258	0.867615	-0.405884
-0.219879	0.879517	-0.398560
-0.224915	0.899963	-0.399017
-0.209656	0.895081	-0.384369
-0.240173	0.874329	-0.384216
-0.236206	0.900879	-0.406647
-0.185242	0.946503	-0.405579
-0.152893	0.977325	-0.407715
-0.104065	0.972900	-0.410156
-0.096436	0.965576	-0.420380
-0.029907	0.972443	-0.416565
-0.005341	0.966034	-0.406342
0.016174	0.980072	-0.412140
0.016785	0.992584	-0.408478
-0.012512	0.957336	-0.429535
-0.016022	0.943298	-0.425262
-0.061188	0.947266	-0.440979
-0.044861	0.982513	-0.418243
-0.069275	0.992584	-0.417480
-0.075226	0.973358	-0.412750
-0.037079	0.932007	-0.401306
-0.064850	0.895691	-0.402679
-0.061493	0.904388	-0.400696
-0.071411	0.897827	-0.409698
-0.054779	0.859070	-0.409698
-0.043945	0.788879	-0.425415
-0.015564	0.760803	-0.411530
0.011597	0.720062	-0.407410
0.000916	0.714569	-0.397797
0.016937	0.709839	-0.381165
-0.004120	0.635071	-0.377808
-0.018158	0.596466	-0.389709
-0.043335	0.532837	-0.400238
-0.057831	0.537872	-0.379181
-0.061035	0.500336	-0.376587
-0.072174	0.496674	-0.377045
-0.081329	0.489655	-0.379944
-0.050659	0.457153	-0.362701
-0.072784	0.442810	-0.379944
-0.043030	0.458527	-0.380402
-0.041656	0.474396	-0.389099
-0.026398	0.457306	-0.375061
-0.028229	0.454712	-0.373077
-0.037537	0.434265	-0.378418
-0.033722	0.406952	-0.389862
-0.043793	0.408325	-0.404663
-0.024872	0.419464	-0.379486
-0.070953	0.383453	-0.401154
-0.130920	0.357361	-0.426941
-0.138397	0.361176	-0.418854
-0.172729	0.385132	-0.418854
-0.174866	0.373077	-0.438385
-0.177612	0.390320	-0.439148
-0.146027	0.380402	-0.426636
-0.153046	0.360260	-0.442047
-0.178986	0.372162	-0.460510
-0.155334	0.386047	-0.462341
-0.179901	0.392151	-0.475311
-0.161438	0.365753	-0.485382
-0.194550	0.370331	-0.489349
-0.173187	0.327301	-0.509949
-0.160980	0.336761	-0.513763
-0.173798	0.335083	-0.514069
-0.155945	0.331879	-0.510254
-0.176544	0.319672	-0.529633
-0.175323	0.285950	-0.521088
-0.171967	0.295258	-0.546570
-0.174561	0.301819	-0.550537
-0.133057	0.327148	-0.545349
-0.163727	0.313110	-0.565033
-0.130463	0.299988	-0.556793
-0.160675	0.288544	-0.575104
-0.155029	0.307770	-0.569916
-0.138092	0.329895	-0.572815
-0.155640	0.321198	-0.593414
-0.110931	0.299530	-0.585480
-0.130310	0.295563	-0.575256
-0.118103	0.281219	-0.573425
-0.084229	0.282745	-0.593262
-0.053101	0.315704	-0.585175
-0.009613	0.298462	-0.582581
-0.007782	0.270996	-0.607300
0.018158	0.309296	-0.616608
0.008850	0.383301	-0.599670
0.004578	0.491028	-0.614777
0.007935	0.679932	-0.600128
-0.008087	0.896149	-0.598602
0.028229	1.000824	-0.618134
0.028381	1.092834	-0.631104
0.080872	1.107178	-0.617065
0.128326	1.074829	-0.635223
0.133667	1.025391	-0.624847
0.160065	1.016693	-0.624084
0.117340	1.129150	-0.648499
0.106812	1.297760	-0.629425
0.054932	1.416626	-0.624237
0.013123	1.522369	-0.630493
-0.012970	1.465149	-0.626221
-0.056305	1.422577	-0.645142
-0.076294	1.467743	-0.646820
-0.115967	1.684418	-0.646973
-0.136566	1.921997	-0.638123
-0.148773	2.031403	-0.640106
-0.193939	2.057343	-0.634003
-0.209351	1.650848	-0.643616
-0.256348	1.140900	-0.642242
-0.231171	0.167236	-0.639648
-0.199738	-0.814514	-0.640869
-0.156708	-1.264496	-0.645142
-0.108185	-1.538239	-0.650177
-0.054932	-1.533661	-0.644226
-0.028076	-1.462708	-0.653839
-0.037079	-1.315155	-0.636597
-0.074158	-1.120453	-0.627441
-0.126953	-0.984650	-0.641632
-0.141754	-0.923615	-0.640259
-0.139313	-0.752869	-0.622101
-0.184784	-0.625458	-0.633240
-0.198517	-0.550537	-0.648041
-0.190125	-0.516510	-0.636597
-0.158234	-0.552063	-0.632019
-0.103302	-0.614471	-0.638123
-0.121613	-0.761719	-0.648193
-0.068054	-0.933228	-0.651245
-0.073242	-1.083832	-0.645142
-0.052338	-1.132355	-0.641327
-0.035095	-1.203766	-0.653992
0.007172	-1.287689	-0.644073
0.063934	-1.346436	-0.646210
0.088348	-1.454620	-0.634460
0.120087	-1.628265	-0.655365
0.090332	-1.656189	-0.651550
0.006104	-1.632690	-0.649567
-0.060120	-1.580963	-0.653534
-0.139313	-1.506195	-0.660858
-0.214539	-1.362305	-0.658875
-0.294800	-1.200714	-0.664368
-0.367889	-1.087646	-0.669403
-0.455322	-0.946198	-0.672760
-0.504456	-0.875549	-0.675354
-0.591278	-0.796204	-0.691833
-0.599823	-0.739746	-0.699615
-0.430145	-0.691681	-0.700073
-0.244293	-0.655823	-0.716705
-0.072327	-0.591125	-0.701904
0.019836	-0.490417	-0.710144
-0.106659	-0.374756	-0.713501
-0.475006	-0.316620	-0.717468
-0.876007	-0.256958	-0.736084
-1.085815	-0.201721	-0.744476
-0.904083	-0.106659	-0.747833
-0.461273	-0.032806	-0.742493
0.159149	0.088501	-0.733948
0.682983	0.202637	-0.741272
1.066132	0.277100	-0.726624
1.252899	0.402832	-0.727539
1.213531	0.510712	-0.733185
0.999603	0.530243	-0.739441
0.661011	0.571442	-0.719299
0.306244	0.576935	-0.703583
-0.082703	0.562439	-0.699158
-0.409393	0.566711	-0.699158
-0.643463	0.590210	-0.680237
-0.830688	0.589752	-0.661469
-0.899658	0.568237	-0.680237
-0.806885	0.570374	-0.666046
-0.602264	0.590515	-0.660248
-0.289154	0.613251	-0.657654
0.019379	0.601501	-0.664368
0.289154	0.611420	-0.644073
0.385590	0.603790	-0.634613
0.353394	0.595703	-0.650177
0.207672	0.625610	-0.642700
0.127716	0.661469	-0.629272
0.086212	0.649719	-0.632172
0.032349	0.638275	-0.618744
-0.082397	0.609436	-0.621185
-0.003662	0.623779	-0.630035
0.013428	0.630646	-0.598297
0.010376	0.643158	-0.598755
0.132294	0.631256	-0.605164
0.160980	0.623016	-0.586853
0.163574	0.626526	-0.574799
0.315857	0.651398	-0.546265
0.421753	0.668640	-0.552216
0.309906	0.685883	-0.524292
0.211945	0.677338	-0.508575
0.089874	0.648804	-0.486298
0.029297	0.681915	-0.467377
-0.044556	0.706482	-0.445099
-0.129852	0.740051	-0.400848
-0.508575	0.734863	-0.362549
-0.849304	0.727234	-0.311737
-0.799713	0.689850	-0.247040
-0.577087	0.689087	-0.189362
-0.613251	0.710602	-0.133820
-0.616760	0.732574	-0.078888
-0.479126	0.696869	-0.025482
-0.076599	0.684662	0.036163
0.033875	0.698242	0.084534
0.279846	0.714722	0.160980
0.506287	0.756073	0.213623
0.500336	0.786743	0.277405
0.177002	0.793610	0.360565
-0.432587	0.792084	0.404816
-0.882111	0.817413	0.452576
-1.234741	0.826874	0.494385
-0.870667	0.835419	0.552521
0.043030	0.823059	0.569000
0.782928	0.825653	0.614014
0.855713	0.842285	0.664978
0.659790	0.845490	0.702515
0.280914	0.866547	0.742493
-0.193481	0.858002	0.762634
-0.753784	0.838470	0.778198
-0.802917	0.843353	0.784760
-0.585480	0.867615	0.814819
-0.890350	0.885010	0.825195
-1.045837	0.938873	0.856476
0.108032	0.925140	0.861206
1.538696	0.961914	0.874329
1.349640	0.976105	0.887146
-0.274353	1.040649	0.876923
-1.266174	1.066742	0.890503
-0.688324	1.042328	0.886688
0.507202	1.034698	0.890198
1.110840	1.035004	0.886841
1.177673	1.037750	0.884552
0.671387	1.059418	0.890961
-0.469208	1.094971	0.887299
-1.237946	1.045074	0.870819
-1.085358	1.025848	0.851440
-0.924225	1.039581	0.842590
-1.252899	1.073761	0.830383
-1.293640	1.089020	0.812836
-0.658569	1.101074	0.805969
0.814056	1.103973	0.822906
2.639160	1.082306	0.821686
2.469330	1.128540	0.810699
0.090179	1.169586	0.799255
-1.881714	1.180725	0.792542
-1.640167	1.161041	0.782623
-0.030670	1.150360	0.799713
0.910492	1.154175	0.793457
0.046082	1.173706	0.810547
-1.162109	1.164246	0.789185
-0.256653	1.170502	0.790863
1.609497	1.133881	0.760956
1.961365	1.136322	0.763397
0.689850	1.158295	0.750580
-0.509186	1.188660	0.759125
-0.992126	1.215057	0.765533
-0.433197	1.213226	0.769806
0.292511	1.217957	0.761261
0.150452	1.203766	0.768280
-0.787354	1.255951	0.762177
-1.194000	1.280060	0.757751
-0.860443	1.273193	0.762787
0.232544	1.260986	0.764771
1.685028	1.259613	0.782623
1.742096	1.263123	0.774994
-0.184479	1.268921	0.798645
-2.075653	1.280670	0.806580
-2.628632	1.250000	0.787506
-1.858673	1.218567	0.789337
-0.192108	1.193848	0.788116
1.254578	1.225281	0.784149
1.196136	1.251373	0.798187
0.007477	1.248016	0.795288
-0.540009	1.235657	0.789490
-0.115814	1.223602	0.782928
0.883331	1.189575	0.767059
1.463928	1.203766	0.765991
0.372772	1.234436	0.792847
-1.264801	1.188507	0.771637
-1.979675	1.134033	0.769501
-1.196747	1.091309	0.754395
0.739746	1.059418	0.760193
2.288208	1.042175	0.761871
2.319794	1.031342	0.776672
0.443573	0.986786	0.753326
-1.347198	0.921326	0.738983
-2.444458	0.918884	0.742035
-2.144318	0.893402	0.741119
-1.446381	0.877228	0.741730
-1.208344	0.864258	0.754242
-0.731964	0.817871	0.750275
0.578766	0.760498	0.731506
1.500244	0.748596	0.706024
1.676941	0.746155	0.728455
1.736908	0.736694	0.698700
1.748199	0.681763	0.669098
0.927734	0.634460	0.678864
-0.541534	0.589142	0.666962
-1.326141	0.561523	0.659027
-1.830597	0.550690	0.661163
-2.480011	0.519104	0.647125
-2.417145	0.452728	0.619812
-0.634613	0.421753	0.611572
1.520081	0.407410	0.621185
2.628632	0.414734	0.601807
2.180481	0.425262	0.596161
1.316528	0.430756	0.603027
0.496216	0.411072	0.582886
-0.570984	0.354614	0.548401
-1.227875	0.384521	0.547180
-1.444855	0.400391	0.544586
-1.918640	0.373383	0.530853
-2.070160	0.333710	0.505371
-0.372620	0.305634	0.505829
1.298981	0.285645	0.500183
1.142120	0.293121	0.514069
-0.010223	0.304871	0.492706
-0.248871	0.279541	0.489655
0.924225	0.243073	0.470581
2.149506	0.230103	0.465088
1.809387	0.252075	0.452728
-0.642853	0.264130	0.448151
-2.260132	0.276794	0.447388
-2.002411	0.288849	0.451813
-1.222687	0.234222	0.453339
-0.422211	0.243988	0.439301
0.400848	0.263062	0.418243
0.969696	0.298309	0.434418
1.020355	0.278473	0.421600
0.590363	0.260162	0.399017
-0.215607	0.226898	0.390778
-0.725708	0.226288	0.374451
-0.303345	0.206757	0.369110
0.264435	0.214081	0.371399
0.106049	0.180206	0.357056
-0.135040	0.181580	0.356445
-0.161896	0.185242	0.324097
-0.329285	0.182343	0.321960
-0.720825	0.224609	0.304718
-0.513916	0.231323	0.299683
-0.015564	0.225830	0.306244
-0.000763	0.193024	0.286865
-0.208740	0.211334	0.267792
0.030975	0.235138	0.254211
0.331726	0.233765	0.244598
0.614471	0.203247	0.231781
0.458984	0.197449	0.217285
-0.541229	0.196991	0.222321
-1.338043	0.187988	0.203705
-1.176910	0.212860	0.202789
-0.297852	0.195465	0.190582
0.282440	0.146790	0.163116
0.135345	0.155945	0.166016
-0.287170	0.179596	0.138092
-0.642395	0.179443	0.108795
-0.456085	0.200348	0.101013
0.059509	0.208893	0.095520
0.564117	0.190277	0.071564
0.804596	0.188446	0.050659
0.514069	0.218964	0.025482
0.146942	0.241241	0.007782
-0.204620	0.223999	-0.025482
-0.476837	0.201111	-0.037689
-0.774078	0.191345	-0.068054
-0.753021	0.183258	-0.089569
-0.693665	0.172882	-0.116577
-0.272522	0.193939	-0.133514
0.310059	0.147247	-0.191498
0.661469	0.107574	-0.214081
0.730896	0.135498	-0.242462
0.755310	0.129395	-0.256805
0.319672	0.151520	-0.260620
-0.276947	0.171051	-0.295715
-0.471344	0.162964	-0.310364
-0.166321	0.153046	-0.302124
0.133209	0.146942	-0.352478
0.330505	0.164948	-0.349426
0.426483	0.193329	-0.363922
0.368500	0.169830	-0.360565
0.265503	0.163269	-0.363007
0.062561	0.143890	-0.368652
-0.214844	0.122223	-0.348511
-0.431519	0.151062	-0.356598
-0.605469	0.144196	-0.342560
-0.684204	0.133667	-0.348663
-0.592346	0.121613	-0.330353
-0.489960	0.099182	-0.337524
-0.397034	0.146790	-0.311127
-0.381165	0.133667	-0.328979
-0.373688	0.147247	-0.334930
-0.569458	0.150757	-0.321503
0.173798	0.110168	-0.314941
1.063080	0.119934	-0.335693
1.203461	0.160828	-0.328522
0.970154	0.177917	-0.318604
0.527802	0.115204	-0.344238
-0.354919	0.117493	-0.334167
-1.348114	0.127411	-0.338745
-1.626892	0.105896	-0.325470
-0.839386	0.086365	-0.313721
0.169678	0.094299	-0.334473
0.610657	0.057220	-0.337372
0.461884	0.063324	-0.326996
-0.041351	0.101929	-0.329132
-0.520477	0.087738	-0.334625
-0.657196	0.118408	-0.352325
-0.422974	0.111847	-0.356140
-0.146179	0.102234	-0.339508
0.020599	0.089569	-0.384521
0.035400	0.119476	-0.376434
-0.052032	0.156555	-0.379944
-0.115051	0.137939	-0.405273
-0.122375	0.131378	-0.407257
-0.075989	0.132751	-0.409241
-0.083008	0.142670	-0.402985
-0.093842	0.158691	-0.419464
-0.105743	0.170135	-0.427094
-0.138550	0.166779	-0.439758
-0.142822	0.142517	-0.451813
-0.140991	0.184326	-0.452728
-0.127716	0.221558	-0.451660
-0.153351	0.273132	-0.472870
-0.164490	0.324249	-0.471802
-0.114594	0.338898	-0.471802
-0.092926	0.342560	-0.501099
-0.000916	0.371552	-0.496979
0.060120	0.388794	-0.500183
0.124512	0.416107	-0.521088
0.135193	0.396423	-0.537109
0.082550	0.339813	-0.558319
0.046997	0.306091	-0.557556
-0.003967	0.302887	-0.565338
-0.016174	0.328217	-0.547180
-0.057983	0.310669	-0.566559
-0.094147	0.292816	-0.568695
-0.139313	0.272522	-0.583801
-0.175629	0.298157	-0.584564
-0.134430	0.325012	-0.577698
-0.145111	0.367737	-0.597687
-0.146332	0.406342	-0.580139
-0.128174	0.413055	-0.575867
-0.154419	0.412140	-0.603943
-0.094147	0.467987	-0.600128
-0.062256	0.504150	-0.608673
-0.006256	0.493622	-0.629578
0.005035	0.488739	-0.623627
-0.016479	0.465546	-0.611115
-0.042572	0.418854	-0.628967
-0.085297	0.426331	-0.632019
-0.065613	0.412903	-0.629425
-0.077972	0.439301	-0.633392
-0.115204	0.428009	-0.639343
-0.139313	0.446320	-0.656891
-0.189667	0.491638	-0.652161
-0.196381	0.527649	-0.640106
-0.247192	0.523682	-0.655518
-0.233917	0.564423	-0.661469
-0.191345	0.535736	-0.652313
-0.165100	0.549774	-0.655975
-0.141449	0.577850	-0.674744
-0.140076	0.564880	-0.677643
-0.107574	0.559845	-0.670776
-0.104370	0.486908	-0.687408
-0.109253	0.472717	-0.698853
-0.123138	0.411987	-0.701752
-0.143890	0.388794	-0.687256
-0.129242	0.349121	-0.690002
-0.146942	0.290070	-0.709076
-0.131531	0.274963	-0.711823
-0.107574	0.244751	-0.704956
-0.096283	0.242462	-0.714417
-0.080261	0.259552	-0.713196
-0.085449	0.259247	-0.710297
-0.050201	0.206604	-0.718536
-0.032349	0.151062	-0.729218
0.026855	0.129700	-0.733032
0.099640	0.106812	-0.741730
0.138092	0.081635	-0.742950
0.208588	0.042572	-0.728760
0.168915	0.016937	-0.764618
0.168304	0.002289	-0.754700
0.141296	-0.031433	-0.744324
0.114899	-0.010681	-0.751038
0.077362	-0.036469	-0.740814
0.011902	-0.074158	-0.781555
0.014801	-0.093231	-0.785217
0.012360	-0.081482	-0.773468
-0.000458	-0.066681	-0.786285
-0.017242	-0.048523	-0.790558
-0.039520	-0.031586	-0.808258
-0.036469	-0.048370	-0.794983
-0.098724	-0.101013	-0.810547
-0.126953	-0.060425	-0.819092
-0.159302	-0.043030	-0.799408
-0.211792	-0.065155	-0.822601
-0.248413	-0.090790	-0.850983
-0.294647	-0.131073	-0.848846
-0.282745	-0.130615	-0.875854
-0.280304	-0.137329	-0.864716
-0.269928	-0.130920	-0.862732
-0.272064	-0.158386	-0.890198
-0.262146	-0.179596	-0.891266
-0.193939	-0.180664	-0.898590
-0.164490	-0.149994	-0.904083
-0.136719	-0.152130	-0.912628
-0.113831	-0.139313	-0.921936
-0.088806	-0.158081	-0.928955
-0.035248	-0.174713	-0.926056
-0.059052	-0.166626	-0.949249
-0.031433	-0.124969	-0.931244
-0.034637	-0.118561	-0.942688
-0.066071	-0.134430	-0.960236
-0.104218	-0.163727	-0.960236
-0.159149	-0.180511	-0.957642
-0.178375	-0.163116	-0.963898
-0.237274	-0.184174	-0.965424
-0.247345	-0.169983	-0.968781
-0.273437	-0.182648	-0.987701
-0.282288	-0.226746	-0.975647
-0.270538	-0.217590	-0.991669
-0.274200	-0.207520	-0.968933
-0.230103	-0.221710	-0.986481
-0.212860	-0.204315	-0.983582
-0.175934	-0.194092	-0.986328
-0.114594	-0.209808	-0.986481
-0.064240	-0.160217	-0.993347
0.003967	-0.089111	-0.990143
0.040894	-0.025177	-0.979919
0.076294	0.108185	-0.982971
0.112152	0.287018	-0.977631
0.133820	0.410919	-0.979614
0.171356	0.539246	-0.974579
0.164490	0.645294	-0.961456
0.201111	0.593719	-0.955963
0.157928	0.491180	-0.966492
0.113678	0.463715	-0.959625
0.080414	0.564575	-0.943298
0.033722	0.740662	-0.949402
-0.015106	0.871124	-0.964813
-0.074768	1.025848	-0.952911
-0.089264	1.064453	-0.936584
-0.108490	1.042938	-0.958862
-0.087738	1.104889	-0.959015
-0.041351	1.243896	-0.957336
-0.032043	1.487427	-0.956421
0.017853	1.583405	-0.954132
0.054474	1.628723	-0.956726
0.063782	1.422882	-0.952606
0.046997	0.968170	-0.941467
-0.048065	0.234375	-0.940094
-0.138702	-0.915070	-0.938110
-0.216217	-1.637726	-0.952148
-0.279083	-1.998901	-0.931549
-0.286407	-2.072449	-0.942383
-0.260315	-2.023926	-0.951843
-0.167389	-1.913300	-0.954285
-0.122223	-1.732483	-0.940247
-0.043793	-1.586304	-0.952911
-0.024109	-1.508942	-0.965118
0.016327	-1.364899	-0.955963
0.033875	-1.224670	-0.960083
-0.018158	-1.158142	-0.968475
-0.063019	-1.118927	-0.961761
-0.156250	-1.101532	-0.954285
-0.223999	-1.200867	-0.955353
-0.243835	-1.352386	-0.940704
-0.236969	-1.510010	-0.943451
-0.202026	-1.716156	-0.924683
-0.175171	-1.802673	-0.927277
-0.131836	-1.799469	-0.932465
-0.162811	-1.853943	-0.926819
-0.158997	-1.883698	-0.922394
-0.146484	-2.031250	-0.924072
-0.123749	-2.182617	-0.907898
-0.049896	-2.205505	-0.905762
0.009460	-2.178192	-0.899811
0.124359	-2.109528	-0.895996
0.197296	-2.023010	-0.888824
0.254517	-1.921387	-0.902863
0.332489	-1.796722	-0.895538
0.346832	-1.652832	-0.876617
0.299835	-1.546631	-0.882721
0.172882	-1.451111	-0.877838
0.044708	-1.375732	-0.865173
-0.220184	-1.323242	-0.860748
-0.653992	-1.251068	-0.853729
-1.071930	-1.171722	-0.851746
-1.335754	-1.125183	-0.823364
-1.304016	-1.002350	-0.831146
-1.117706	-0.901794	-0.836945
-0.743561	-0.840912	-0.832825
-0.294647	-0.762177	-0.834961
-0.041046	-0.658112	-0.832214
0.054474	-0.607300	-0.844574
0.057831	-0.520172	-0.827179
0.096741	-0.455627	-0.827179
0.215149	-0.355072	-0.820618
0.392151	-0.278931	-0.802460
0.602417	-0.149384	-0.810699
0.758514	-0.074463	-0.784607
0.904083	-0.062714	-0.811920
0.994873	-0.045166	-0.778656
0.899048	-0.038910	-0.759735
0.673828	-0.010529	-0.753021
0.360870	-0.055695	-0.754547
0.059357	-0.012665	-0.750427
-0.285492	0.006256	-0.716858
-0.663605	-0.014954	-0.716248
-1.012115	0.022736	-0.711060
-1.191406	0.053101	-0.700684
-1.119690	0.064850	-0.700531
-0.847168	0.020447	-0.682220
-0.407562	0.019379	-0.702057
-0.060272	0.014954	-0.693207
0.073700	0.018768	-0.683136
0.105438	0.048065	-0.673828
-0.001373	0.030060	-0.676270
-0.088043	0.017700	-0.688934
-0.131378	0.011139	-0.667725
-0.090485	0.032654	-0.669556
-0.108490	0.029755	-0.667877
-0.206451	0.049744	-0.657349
-0.231323	0.069733	-0.651550
-0.219879	0.060120	-0.647125
-0.168610	0.054016	-0.645599
-0.023956	0.080719	-0.632629
0.091553	0.110474	-0.634460
0.280914	0.112915	-0.622406
0.349274	0.099335	-0.613098
0.356445	0.099792	-0.612335
0.448151	0.092010	-0.573273
0.586243	0.106812	-0.566559
0.884247	0.106812	-0.539246
1.020966	0.110626	-0.507202
0.956879	0.054932	-0.458679
0.336914	0.037231	-0.441284
-0.327759	0.054474	-0.404205
-0.769196	0.097504	-0.354767
-1.092987	0.104675	-0.298309
-0.900269	0.109406	-0.236359
-0.500183	0.130615	-0.159302
-0.089111	0.140228	-0.107880
0.062714	0.181427	-0.036621
0.392914	0.217133	0.028534
0.238953	0.223846	0.102081
-0.265503	0.235291	0.180511
-0.839386	0.225220	0.261536
-1.423035	0.209198	0.310364
-0.952911	0.242462	0.383911
-0.324707	0.228729	0.442963
0.092010	0.183563	0.488434
0.464783	0.178680	0.560913
0.705261	0.226288	0.637360
0.765686	0.231934	0.676117
-0.043945	0.259705	0.723572
-1.291199	0.267639	0.797119
-1.809235	0.284119	0.849304
-1.542816	0.272522	0.912018
-0.400085	0.300140	0.942993
1.009674	0.342865	0.972137
1.705627	0.378876	0.999146
1.426544	0.375519	1.030426
0.288544	0.390778	1.058502
-1.207581	0.395355	1.076050
-1.684418	0.419006	1.108093
-1.229706	0.445709	1.133270
-0.189514	0.446014	1.158905
0.441589	0.416565	1.155090
0.686493	0.373230	1.147919
0.625153	0.412292	1.152649
0.313263	0.448151	1.168823
-0.362854	0.466461	1.175079
-0.901794	0.476532	1.173859
-0.718536	0.471039	1.195679
-0.319214	0.465851	1.190796
0.074463	0.511932	1.186676
0.009460	0.523224	1.153870
-0.252991	0.540009	1.166687
0.175323	0.522461	1.155396
1.029510	0.515900	1.163635
1.192932	0.531311	1.143341
-0.591736	0.562744	1.154785
-2.295532	0.592651	1.164093
-2.221832	0.572205	1.161499
-0.187531	0.495605	1.139374
1.078949	0.517120	1.125946
0.939789	0.537109	1.135712
0.522308	0.568695	1.128235
0.047913	0.600281	1.120300
0.578918	0.602875	1.125183
1.815643	0.590057	1.108398
2.429352	0.606842	1.107635
1.337128	0.657349	1.106415
-1.137390	0.681458	1.104279
-2.561646	0.651398	1.072845
-2.265930	0.632477	1.043854
-0.790558	0.619507	1.046906
0.544891	0.640717	1.068420
0.471497	0.660858	1.066895
-0.493011	0.665588	1.052704
-0.639191	0.631561	1.040192
1.118774	0.592346	1.027069
2.709808	0.623169	1.036530
2.675476	0.681763	1.029510
0.525818	0.720520	1.027832
-2.540741	0.715332	1.061249
-2.631989	0.702972	1.051025
-2.626343	0.683441	1.043854
-1.449738	0.720367	1.055450
0.363007	0.748749	1.048737
1.525879	0.743713	1.035919
1.626892	0.714722	1.011810
1.029968	0.715790	1.016846
0.289764	0.681305	1.026154
-0.423431	0.674744	1.024323
-0.250702	0.656586	1.026306
-0.184479	0.623016	1.018829
-1.535339	0.567169	1.009216
-2.188110	0.505829	1.001434
-0.669403	0.444641	0.993500
0.901489	0.453949	0.994720
0.616913	0.455017	0.982208
-0.608521	0.447998	0.989685
-0.663605	0.410767	0.986938
0.734711	0.359344	0.994110
2.499390	0.350342	0.957642
2.687073	0.360870	0.965881
1.516876	0.331421	0.965729
-0.735016	0.260010	0.948029
-2.224884	0.200500	0.946503
-2.386780	0.148468	0.935211
-1.496735	0.116119	0.942841
-0.685272	0.131226	0.946350
-0.250244	0.060120	0.904541
0.014648	0.001984	0.893707
0.756989	-0.032349	0.892792
1.338348	-0.030670	0.867767
1.256409	-0.027008	0.873413
0.537262	-0.046997	0.881958
-0.326843	-0.089264	0.865479
-1.082306	-0.120850	0.869293
-1.072083	-0.169678	0.832825
-0.232697	-0.141602	0.827484
0.236053	-0.116577	0.807800
-0.126343	-0.170593	0.789337
-0.416718	-0.181274	0.789490
-0.106812	-0.212555	0.764008
0.400391	-0.220184	0.752258
0.266418	-0.230255	0.765381
-0.477448	-0.235901	0.751038
-0.654602	-0.271912	0.742950
-0.291443	-0.303650	0.734100
0.584259	-0.319214	0.736542
1.907043	-0.322723	0.723267
2.361908	-0.334625	0.720062
1.384277	-0.318909	0.729218
-0.158997	-0.320892	0.716705
-1.392212	-0.341187	0.722656
-2.089386	-0.363770	0.709686
-1.914215	-0.370636	0.723114
-1.672974	-0.360565	0.700531
-1.760864	-0.375061	0.680847
-1.160278	-0.376434	0.683136
0.409851	-0.430450	0.674896
0.931702	-0.418701	0.683594
0.234375	-0.408478	0.673523
-0.149536	-0.437164	0.660248
0.105133	-0.438995	0.633698
0.271149	-0.439148	0.639648
0.127258	-0.393829	0.635376
0.307617	-0.377960	0.637665
0.652313	-0.358124	0.625153
0.362244	-0.346680	0.633850
-0.400848	-0.357361	0.629730
-0.700226	-0.382080	0.621490
-0.356903	-0.347443	0.607452
0.348816	-0.295410	0.610809
0.646820	-0.339661	0.610199
0.089417	-0.359039	0.595856
-0.519104	-0.372620	0.595856
-0.769806	-0.390930	0.595245
-0.512390	-0.414124	0.592041
-0.126038	-0.399170	0.593109
-0.052948	-0.414124	0.577240
0.006714	-0.430603	0.565033
0.420685	-0.450287	0.561829
0.811615	-0.442352	0.531311
0.604248	-0.429230	0.539551
0.061340	-0.394440	0.507660
-0.269470	-0.395050	0.519104
-0.528717	-0.430145	0.484772
-0.617218	-0.407257	0.464172
-0.518036	-0.391235	0.456390
-0.630951	-0.392303	0.449066
-0.914917	-0.408173	0.411072
-1.004944	-0.433502	0.409546
-0.919647	-0.419006	0.394287
-0.682373	-0.451202	0.350494
-0.324860	-0.444946	0.336304
0.306549	-0.440521	0.321960
1.133270	-0.478210	0.286255
1.996002	-0.487518	0.250244
2.386169	-0.451508	0.228119
2.116699	-0.442963	0.210876
1.587372	-0.425110	0.177155
0.810394	-0.420380	0.147095
-0.217133	-0.417786	0.133209
-1.183624	-0.435944	0.101929
-1.546631	-0.438385	0.082855
-1.420135	-0.432892	0.068665
-1.032715	-0.440216	0.068207
-0.674591	-0.487366	0.052490
-0.675812	-0.496368	0.038910
-0.893250	-0.501862	0.047607
-1.046448	-0.482330	0.059204
-0.967712	-0.474243	0.058594
-0.716248	-0.493469	0.049133
-0.439301	-0.511169	0.034332
-0.139465	-0.533600	0.048676
0.167694	-0.498505	0.046234
0.473633	-0.501709	0.045319
0.833130	-0.484772	0.057983
0.997162	-0.489349	0.061493
0.934906	-0.488129	0.085144
0.509491	-0.477142	0.060425
-0.021057	-0.500336	0.073547
0.213013	-0.502319	0.067749
1.007080	-0.507812	0.068054
1.267090	-0.484772	0.081482
1.061096	-0.504608	0.088348
0.497131	-0.512085	0.101929
-0.428314	-0.493317	0.098114
-1.210937	-0.465546	0.118866
-1.385040	-0.507812	0.098724
-1.010437	-0.520172	0.138397
-0.490875	-0.504150	0.122375
-0.374756	-0.464783	0.144501
-0.567017	-0.480194	0.134888
-0.872345	-0.452728	0.158997
-1.096344	-0.441895	0.160065
-1.053314	-0.494537	0.158081
-0.889893	-0.500946	0.138397
-0.600891	-0.471344	0.151367
-0.290222	-0.458069	0.137787
0.079956	-0.480042	0.140533
0.395203	-0.470886	0.153046
0.472260	-0.480499	0.158234
0.537567	-0.501556	0.152435
0.562439	-0.456085	0.148926
0.551758	-0.471497	0.151978
0.505829	-0.492859	0.142059
0.333405	-0.531158	0.159760
0.132904	-0.500183	0.139923
-0.060883	-0.495911	0.150146
-0.156250	-0.457764	0.148773
-0.149841	-0.458221	0.150757
-0.068359	-0.462341	0.147247
-0.060577	-0.487976	0.151367
-0.091858	-0.478058	0.123901
-0.044861	-0.463257	0.117035
-0.024414	-0.465546	0.116119
0.012665	-0.472870	0.106659
0.041962	-0.486755	0.107727
0.018768	-0.489502	0.085602
-0.001984	-0.495758	0.093079
-0.029602	-0.454712	0.099335
-0.006409	-0.490875	0.068817
0.023499	-0.499115	0.070953
0.061646	-0.442963	0.079346
0.057220	-0.398102	0.074158
-0.017090	-0.367279	0.057526
-0.064850	-0.355072	0.055847
-0.103607	-0.362854	0.066681
-0.092316	-0.381012	0.065308
-0.105438	-0.328979	0.035248
-0.113373	-0.296783	0.041046
-0.123291	-0.284882	0.029449
-0.195770	-0.321808	0.015564
-0.189667	-0.311127	0.018311
-0.236969	-0.317993	0.012817
-0.261383	-0.310669	0.008698
-0.283966	-0.296173	-0.001526
-0.295105	-0.309753	-0.003662
-0.259705	-0.342560	-0.002747
-0.264130	-0.373383	-0.000916
-0.254059	-0.359039	-0.018463
-0.269775	-0.339355	-0.015717
-0.257568	-0.315094	-0.021362
-0.218048	-0.278473	-0.032501
-0.174408	-0.233612	-0.020447
-0.082245	-0.215607	-0.018921
-0.063324	-0.209351	-0.043793
-0.062866	-0.165405	-0.039825
-0.066528	-0.139313	-0.036926
-0.086212	-0.150909	-0.051270
-0.097351	-0.147705	-0.051422
-0.174713	-0.182037	-0.048981
-0.174408	-0.192566	-0.053253
-0.186462	-0.155792	-0.030212
-0.195312	-0.170746	-0.048370
-0.222778	-0.193024	-0.045319
-0.253754	-0.219727	-0.070343
-0.202942	-0.195465	-0.061646
-0.179291	-0.168915	-0.069885
-0.111694	-0.152435	-0.079193
-0.032806	-0.094452	-0.045929
0.016937	-0.092468	-0.040436
0.054169	-0.110016	-0.056152
0.071259	-0.095978	-0.067444
0.113373	-0.070801	-0.046082
0.107880	-0.093536	-0.042267
0.089874	-0.141602	-0.046082
0.074310	-0.217896	-0.040283
0.065918	-0.265808	-0.028687
0.097046	-0.318451	-0.029297
0.075684	-0.322876	-0.028229
0.053864	-0.350342	-0.027924
0.039368	-0.380402	-0.022278
0.009766	-0.416412	-0.030823
-0.015411	-0.415192	-0.023499
-0.088654	-0.440979	-0.031891
-0.086060	-0.467072	-0.019531
-0.070038	-0.523987	-0.020599
-0.036011	-0.573883	-0.014343
-0.016327	-0.603333	-0.025177
-0.036011	-0.635681	-0.041046
-0.021057	-0.621033	-0.031586
-0.047760	-0.664673	-0.048676
-0.016632	-0.662842	-0.031586
-0.041504	-0.708008	-0.041656
-0.099335	-0.704803	-0.041656
-0.088806	-0.680084	-0.029144
-0.136414	-0.675354	-0.044403
-0.144043	-0.726776	-0.047302
-0.170746	-0.729523	-0.048370
-0.170898	-0.720367	-0.039673
-0.174103	-0.709229	-0.053558
-0.193634	-0.714722	-0.058441
-0.181122	-0.717163	-0.073090
-0.180817	-0.713348	-0.051880
-0.189209	-0.753479	-0.040131
-0.264130	-0.743256	-0.066681
-0.296631	-0.701904	-0.076904
-0.299225	-0.717773	-0.067749
-0.292358	-0.739899	-0.083313
-0.256042	-0.753784	-0.078888
-0.206909	-0.760803	-0.074005
-0.146942	-0.764313	-0.083008
-0.081635	-0.750122	-0.069580
-0.085602	-0.759583	-0.080261
-0.028687	-0.807343	-0.084076
-0.007019	-0.823364	-0.089111
0.055847	-0.843048	-0.074463
0.075989	-0.854034	-0.092773
0.081024	-0.818024	-0.081635
0.097198	-0.808563	-0.093689
0.074768	-0.846710	-0.092163
0.072937	-0.831909	-0.088959
0.007172	-0.796661	-0.097198
-0.024109	-0.792694	-0.098877
-0.051575	-0.810242	-0.101166
-0.060272	-0.798492	-0.092010
-0.064545	-0.817261	-0.105743
-0.126648	-0.826263	-0.098267
-0.093842	-0.821686	-0.093384
-0.144196	-0.792236	-0.087433
-0.198975	-0.832672	-0.112610
-0.264740	-0.874634	-0.090179
-0.306854	-0.878601	-0.102692
-0.304413	-0.852203	-0.096588
-0.294342	-0.810089	-0.092926
-0.246277	-0.785065	-0.100098
-0.186157	-0.740356	-0.096588
-0.169830	-0.733032	-0.102386
-0.137482	-0.611725	-0.118256
-0.090027	-0.411072	-0.125885
-0.014038	-0.198059	-0.115814
0.007935	-0.103760	-0.122833
0.024261	-0.018768	-0.127716
0.030975	-0.033112	-0.115051
0.006256	-0.136261	-0.124207
0.031128	-0.189667	-0.125275
0.011597	-0.122681	-0.121765
-0.017853	-0.005646	-0.150909
-0.040588	0.115356	-0.133362
-0.083313	0.248566	-0.130920
-0.108490	0.356598	-0.131226
-0.133820	0.359497	-0.121002
-0.148468	0.343018	-0.125732
-0.166779	0.378571	-0.124969
-0.160217	0.567017	-0.126190
-0.173340	0.813904	-0.131378
-0.193024	0.937347	-0.125732
-0.193329	0.974731	-0.108032
-0.211639	0.547485	-0.128479
-0.170746	-0.076447	-0.127563
-0.139923	-1.130066	-0.119324
-0.079041	-2.076416	-0.135040
-0.000610	-2.458649	-0.141449
0.061951	-2.692108	-0.114441
0.098877	-2.706451	-0.138092
0.118713	-2.632141	-0.139923
0.123901	-2.492828	-0.150604
0.107117	-2.320099	-0.145111
0.057373	-2.127991	-0.148010
0.032043	-1.987152	-0.146484
-0.028992	-1.839752	-0.132904
-0.073853	-1.662445	-0.145874
-0.101776	-1.574554	-0.149078
-0.111389	-1.519928	-0.153961
-0.120239	-1.585999	-0.157776
-0.122528	-1.638031	-0.131378
-0.083160	-1.799164	-0.140228
-0.102692	-1.988068	-0.155640
-0.060272	-2.133789	-0.162964
-0.047150	-2.196503	-0.152283
-0.046082	-2.306824	-0.157623
-0.035248	-2.410278	-0.179749
-0.029144	-2.456818	-0.181580
0.007477	-2.541351	-0.174866
-0.021820	-2.654419	-0.158386
-0.091248	-2.692413	-0.158691
-0.165558	-2.700043	-0.161591
-0.279846	-2.689819	-0.176544
-0.323181	-2.627716	-0.185547
-0.338593	-2.498322	-0.191193
-0.328369	-2.306519	-0.187683
-0.313416	-2.210846	-0.181580
-0.363312	-2.048035	-0.186920
-0.415039	-2.002716	-0.182495
-0.312347	-1.962280	-0.216064
-0.015869	-1.854095	-0.210419
0.210724	-1.802979	-0.198669
0.356293	-1.804352	-0.208130
0.323029	-1.762390	-0.233459
0.043945	-1.657410	-0.245514
-0.377502	-1.550446	-0.249786
-0.803528	-1.447449	-0.273743
-0.811005	-1.364288	-0.276947
-0.473328	-1.290894	-0.265198
0.072327	-1.266632	-0.262756
0.560303	-1.159210	-0.272827
0.829926	-1.039124	-0.277863
0.821991	-0.937805	-0.259552
0.589142	-0.815582	-0.263824
0.252228	-0.743103	-0.247040
-0.103302	-0.634613	-0.226288
-0.392456	-0.598907	-0.238190
-0.605316	-0.545654	-0.239868
-0.775604	-0.559845	-0.252991
-0.841827	-0.567474	-0.244751
-0.907288	-0.578613	-0.238495
-0.905457	-0.562897	-0.243835
-0.786591	-0.550079	-0.250397
-0.583191	-0.528412	-0.255432
-0.273743	-0.516357	-0.249634
-0.010529	-0.545959	-0.247955
0.208588	-0.528107	-0.254059
0.373688	-0.503082	-0.237122
0.495911	-0.483093	-0.246735
0.523071	-0.513611	-0.248718
0.459137	-0.547485	-0.252686
0.434570	-0.536652	-0.252533
0.359497	-0.545197	-0.267792
0.334320	-0.511627	-0.265198
0.282440	-0.478973	-0.262909
0.213623	-0.517273	-0.270996
0.173798	-0.511169	-0.268555
0.122223	-0.518341	-0.270691
0.256805	-0.491333	-0.279541
0.107574	-0.475616	-0.267181
-0.082550	-0.478821	-0.267029
-0.082092	-0.487366	-0.262909
-0.125275	-0.480194	-0.245972
-0.091400	-0.443573	-0.241547
-0.096588	-0.400085	-0.243988
-0.185547	-0.383759	-0.228882
-0.340118	-0.391846	-0.195312
-0.585785	-0.386200	-0.168304
-0.626984	-0.399933	-0.137787
-0.686035	-0.407104	-0.115356
-0.570984	-0.388031	-0.064545
-0.357056	-0.404205	-0.038910
-0.415344	-0.423889	0.016785
-0.165253	-0.420837	0.061951
0.176849	-0.380249	0.119629
-0.035858	-0.359802	0.184784
-0.497894	-0.317078	0.236969
-0.504456	-0.292511	0.300751
0.042114	-0.299530	0.364380
0.380554	-0.302734	0.404968
0.433807	-0.260773	0.474396
0.199127	-0.226288	0.523071
0.458221	-0.235291	0.588531
0.921173	-0.281067	0.631561
0.468750	-0.285950	0.691071
-0.622864	-0.265656	0.737457
-1.705780	-0.249023	0.780487
-2.189178	-0.256653	0.831909
-1.005249	-0.251465	0.896454
0.772858	-0.266724	0.928802
1.898499	-0.273743	0.931854
1.594086	-0.217438	0.964203
0.530090	-0.151520	1.008911
-0.834656	-0.146942	1.040344
-1.618652	-0.133972	1.076965
-1.078033	-0.164642	1.085205
-0.046082	-0.173798	1.079559
0.293884	-0.130768	1.089325
-0.021820	-0.090637	1.101074
-0.319977	-0.095520	1.120300
-0.158234	-0.095825	1.132965
0.682983	-0.093384	1.130524
1.266022	-0.077515	1.136322
1.586304	-0.043793	1.157684
1.006165	-0.030060	1.156158
-0.936279	-0.005646	1.131287
-2.659607	-0.021515	1.123352
-2.624512	-0.003967	1.104584
-1.187592	0.011444	1.100769
0.800171	-0.006104	1.091461
1.749420	0.009308	1.101532
1.633301	0.014343	1.092682
1.133881	0.003815	1.053467
0.421906	0.048065	1.034698
-0.521698	0.095978	1.044464
-0.828400	0.080566	1.036835
-0.318909	0.090179	1.007690
-0.213776	0.078583	0.998383
-1.140747	0.081329	0.998077
-1.403961	0.105286	1.003418
-0.409851	0.117950	0.989227
0.919800	0.109863	1.005402
1.824188	0.091705	0.982361
2.211304	0.099640	0.955353
1.269073	0.128326	0.955505
0.127869	0.170441	0.938110
-0.690765	0.171051	0.935364
-1.751251	0.189819	0.956116
-2.266235	0.170135	0.942535
-1.845093	0.167389	0.949402
-0.799713	0.225677	0.919952
0.730438	0.235443	0.905609
1.020813	0.234985	0.881195
0.847778	0.221710	0.884552
0.433044	0.228424	0.867920
0.164185	0.222168	0.866699
0.762482	0.218658	0.843964
0.219879	0.247803	0.873260
-1.269379	0.224457	0.839233
-1.827698	0.189819	0.837708
-0.774689	0.181427	0.824585
1.002808	0.211639	0.835724
2.156067	0.225372	0.835419
1.579895	0.216675	0.826721
0.177155	0.243073	0.833435
-1.269073	0.233612	0.810699
-1.988831	0.216064	0.808868
-1.571960	0.219727	0.795898
-0.390930	0.239868	0.808105
0.190430	0.223083	0.779877
0.292511	0.211945	0.780640
0.233765	0.179749	0.769043
0.025482	0.152740	0.753937
-0.292511	0.134735	0.749054
0.149994	0.114594	0.740662
0.895538	0.051422	0.740662
0.227814	0.029907	0.734406
-1.888275	0.017700	0.721588
-2.607880	0.006866	0.718842
-1.064453	-0.040131	0.705109
0.106354	-0.028534	0.735016
0.733643	-0.046387	0.733032
1.009827	-0.095367	0.725250
1.442566	-0.108643	0.704346
1.952515	-0.121460	0.711670
1.978912	-0.138092	0.700531
1.055756	-0.201721	0.677490
-1.081238	-0.232697	0.686798
-2.317657	-0.281219	0.705566
-1.778870	-0.347290	0.687408
-0.866394	-0.363922	0.664825
-0.319824	-0.416565	0.679779
-0.055237	-0.475616	0.672302
0.258026	-0.509338	0.657501
0.586395	-0.490112	0.666504
0.451660	-0.481873	0.655365
0.007172	-0.496216	0.638275
-0.159454	-0.512848	0.626831
0.192108	-0.547638	0.627289
0.022888	-0.547943	0.615845
-0.613556	-0.547638	0.607910
-0.225677	-0.561371	0.600739
0.973663	-0.596466	0.583801
1.668396	-0.607147	0.583954
1.171722	-0.620117	0.573273
-0.771790	-0.629272	0.554810
-2.565613	-0.677338	0.539703
-1.889954	-0.666962	0.540619
-0.295105	-0.715790	0.531464
0.852051	-0.729675	0.540466
1.266937	-0.724487	0.528107
1.046753	-0.710602	0.514832
0.090485	-0.705566	0.480042
-0.484619	-0.708923	0.470428
-0.739136	-0.721893	0.453033
-1.423187	-0.767059	0.446167
-1.490021	-0.732880	0.417328
-0.342255	-0.705719	0.413971
0.562897	-0.695343	0.384521
0.467224	-0.720367	0.367584
0.141144	-0.760040	0.338745
0.028992	-0.751038	0.330353
0.457306	-0.778198	0.329437
0.489349	-0.780792	0.303802
-0.182190	-0.801544	0.289154
-0.275116	-0.839233	0.259552
0.030212	-0.839691	0.239868
0.262756	-0.845337	0.227356
0.512848	-0.824738	0.224152
0.788727	-0.798035	0.215454
0.792389	-0.777283	0.189667
0.007019	-0.796051	0.164032
-1.192169	-0.809326	0.152893
-1.759796	-0.782166	0.133514
-1.522369	-0.746307	0.118408
-1.026611	-0.780334	0.117187
-0.348053	-0.795441	0.106506
-0.012360	-0.808105	0.086823
0.437775	-0.826263	0.071716
0.824890	-0.828705	0.060577
0.641937	-0.783234	0.028687
0.177307	-0.795898	0.025482
-0.184479	-0.855255	0.003967
-0.368195	-0.838470	-0.005188
-0.395508	-0.820465	-0.024872
-0.217133	-0.811310	-0.028534
-0.108185	-0.788269	-0.043335
-0.182800	-0.788879	-0.041199
-0.364838	-0.788269	-0.076447
-0.472260	-0.807953	-0.102234
-0.184937	-0.780029	-0.121613
0.320892	-0.784607	-0.130920
0.770416	-0.798492	-0.149841
1.019135	-0.808563	-0.163574
1.027832	-0.813293	-0.173645
0.790405	-0.822601	-0.174255
0.179291	-0.815125	-0.199585
-0.574341	-0.802002	-0.213318
-1.485901	-0.848389	-0.251007
-1.986847	-0.851135	-0.258484
-1.573944	-0.858002	-0.294647
-0.746918	-0.825348	-0.301514
0.176544	-0.814972	-0.322571
0.819550	-0.815582	-0.350189
1.083832	-0.815430	-0.365143
1.027832	-0.844879	-0.399323
0.709381	-0.813751	-0.423126
0.158539	-0.768433	-0.413666
-0.307617	-0.777435	-0.443420
-0.321503	-0.808258	-0.471344
-0.123901	-0.794373	-0.486298
0.095367	-0.832825	-0.491943
0.249481	-0.850525	-0.512390
0.207214	-0.817261	-0.493774
-0.043793	-0.809021	-0.488281
-0.417633	-0.855865	-0.504150
-0.675354	-0.872040	-0.500641
-0.869598	-0.846558	-0.485992
-0.921021	-0.827026	-0.490265
-0.818939	-0.817261	-0.481110
-0.601044	-0.806580	-0.479889
-0.224457	-0.807648	-0.491028
0.074005	-0.828094	-0.482788
0.143280	-0.789490	-0.478516
0.321655	-0.769348	-0.491791
0.122070	-0.758972	-0.483093
0.114594	-0.809021	-0.490875
0.768585	-0.842743	-0.501251
1.093903	-0.822296	-0.477600
0.782318	-0.821838	-0.483246
0.578766	-0.791321	-0.471649
-0.071259	-0.834808	-0.494232
-0.966187	-0.838165	-0.486755
-1.438293	-0.846710	-0.503387
-1.087646	-0.810852	-0.491791
-0.320129	-0.793762	-0.507355
0.237732	-0.797729	-0.488739
0.251160	-0.784149	-0.497437
-0.039062	-0.782471	-0.491486
-0.457916	-0.776367	-0.519257
-0.676422	-0.739136	-0.509644
-0.646515	-0.724640	-0.531616
-0.405273	-0.746307	-0.528259
-0.064850	-0.753174	-0.548859
0.177765	-0.770416	-0.539246
0.301819	-0.784912	-0.557098
0.316010	-0.788269	-0.565643
0.326233	-0.774231	-0.561829
0.244751	-0.792389	-0.588226
0.156860	-0.808258	-0.602570
0.058441	-0.809174	-0.615387
-0.063324	-0.771790	-0.620270
-0.116577	-0.750275	-0.620117
-0.176544	-0.760193	-0.624847
-0.168762	-0.759888	-0.643921
-0.178833	-0.752106	-0.659637
-0.199432	-0.728607	-0.663910
-0.154724	-0.667114	-0.677643
-0.077667	-0.653687	-0.687866
0.030365	-0.620270	-0.696106
0.061493	-0.629425	-0.714569
0.016632	-0.628204	-0.712585
0.028992	-0.632172	-0.734253
0.043640	-0.580750	-0.724335
0.072937	-0.603180	-0.740051
0.019531	-0.616150	-0.759583
0.006256	-0.676727	-0.781403
-0.052338	-0.637665	-0.776367
-0.107880	-0.617065	-0.785217
-0.096893	-0.596008	-0.780945
-0.095062	-0.603180	-0.814819
-0.060730	-0.608521	-0.816040
-0.080872	-0.624542	-0.829315
-0.082703	-0.584412	-0.831757
-0.097198	-0.539703	-0.820312
-0.114288	-0.535278	-0.831299
-0.108643	-0.531311	-0.829773
-0.161133	-0.533905	-0.825043
-0.147858	-0.492249	-0.819244
-0.156860	-0.491943	-0.842590
-0.105896	-0.452271	-0.840912
-0.076447	-0.482025	-0.835724
-0.077515	-0.490265	-0.836487
-0.091400	-0.504303	-0.838165
-0.104218	-0.489349	-0.836792
-0.104828	-0.472260	-0.837708
-0.146484	-0.456543	-0.846863
-0.173187	-0.436859	-0.842285
-0.144043	-0.424042	-0.852814
-0.156555	-0.392609	-0.866699
-0.141449	-0.370941	-0.875854
-0.186462	-0.339355	-0.872650
-0.235748	-0.350037	-0.869141
-0.215149	-0.372925	-0.861053
-0.200500	-0.371552	-0.854340
-0.177155	-0.384369	-0.859833
-0.176392	-0.378723	-0.854492
-0.140839	-0.400238	-0.853271
-0.135040	-0.432434	-0.851746
-0.121002	-0.473633	-0.860291
-0.120392	-0.485687	-0.870819
-0.127869	-0.507355	-0.860291
-0.092926	-0.551605	-0.880127
-0.117035	-0.550690	-0.878906
-0.092163	-0.579529	-0.872650
-0.075226	-0.632172	-0.873108
-0.090485	-0.625305	-0.874786
-0.060272	-0.625458	-0.892029
-0.067749	-0.640869	-0.891266
-0.042267	-0.697784	-0.891571
-0.056000	-0.729370	-0.888214
-0.028534	-0.790863	-0.894470
-0.045319	-0.820923	-0.896454
-0.077667	-0.840607	-0.891724
-0.072632	-0.874481	-0.907440
-0.078430	-0.926971	-0.909576
-0.056305	-0.962677	-0.924530
-0.072632	-0.930481	-0.915985
-0.088959	-0.937500	-0.923615
-0.045166	-0.941315	-0.926208
-0.049133	-0.942078	-0.925446
-0.012665	-0.950470	-0.927887
0.001373	-0.964203	-0.941772
0.017395	-0.943451	-0.950775
0.008392	-0.919342	-0.946655
-0.008392	-0.912476	-0.950012
0.016785	-0.934601	-0.939636
-0.011597	-0.962372	-0.959167
-0.009460	-0.949707	-0.947571
-0.048828	-0.951233	-0.947723
-0.060577	-0.947113	-0.951538
-0.084381	-0.957947	-0.961151
-0.137329	-0.997467	-0.961761
-0.159454	-1.018372	-0.962830
-0.206604	-0.983734	-0.970154
-0.191193	-0.987396	-0.964966
-0.137329	-0.956116	-0.946960
-0.122528	-0.956879	-0.960083
-0.077209	-1.006927	-0.969391
-0.098419	-1.009827	-0.970612
-0.076294	-0.965424	-0.967712
-0.080261	-0.967865	-0.962830
-0.074158	-1.005402	-0.970764
-0.106812	-1.014099	-0.988007
-0.130310	-1.010895	-0.964203
-0.124054	-1.041107	-0.964203
-0.135498	-1.025085	-0.962372
-0.095367	-1.005402	-0.943146
-0.072937	-1.039429	-0.928192
-0.071869	-1.085663	-0.953217
-0.058594	-1.066589	-0.943756
-0.075684	-1.028290	-0.929108
-0.052338	-1.028137	-0.923462
-0.102386	-1.040039	-0.932312
-0.127563	-1.031799	-0.918427
-0.166626	-1.038971	-0.918427
-0.164490	-1.029358	-0.912170
-0.160522	-1.012726	-0.906372
-0.152740	-0.994263	-0.885468
-0.124817	-1.031952	-0.905914
-0.104065	-1.035004	-0.879059
-0.113525	-1.004639	-0.892029
-0.073853	-0.981598	-0.881805
-0.049133	-0.909882	-0.878296
0.005341	-0.762482	-0.872345
-0.005341	-0.615540	-0.887451
-0.011139	-0.458832	-0.886230
-0.028381	-0.330658	-0.881500
-0.066376	-0.232391	-0.876465
-0.090332	-0.261383	-0.879974
-0.121307	-0.288239	-0.857086
-0.126038	-0.346832	-0.872498
-0.141144	-0.256348	-0.875702
-0.119324	-0.082092	-0.878448
-0.079498	0.107117	-0.852966
-0.076141	0.186310	-0.860443
-0.021515	0.261841	-0.863342
-0.007477	0.220184	-0.856781
0.018311	0.240479	-0.870209
0.010071	0.347595	-0.861816
-0.021362	0.589600	-0.873566
-0.028687	0.710144	-0.859985
-0.054474	0.773010	-0.856781
-0.058289	0.618744	-0.850525
-0.086060	0.196533	-0.864410
-0.077820	-0.486908	-0.850067
-0.072479	-1.574402	-0.854492
-0.049286	-2.345123	-0.842896
-0.016327	-2.696381	-0.847778
-0.034332	-2.704926	-0.846863
-0.048523	-2.705536	-0.853271
-0.059052	-2.699127	-0.846405
-0.037537	-2.524719	-0.846100
-0.036926	-2.373199	-0.855255
-0.048523	-2.287903	-0.846405
-0.067444	-2.198334	-0.836945
-0.106812	-2.031250	-0.842896
-0.109711	-1.929932	-0.837097
-0.130310	-1.929016	-0.833130
-0.198975	-1.970215	-0.839081
-0.217133	-2.030640	-0.844421
-0.233765	-2.152710	-0.856628
-0.137787	-2.319489	-0.835724
-0.143127	-2.470551	-0.836792
-0.115204	-2.536774	-0.831146
-0.100708	-2.559967	-0.818481
-0.115051	-2.606659	-0.815582
-0.131226	-2.637634	-0.827026
-0.162659	-2.701111	-0.820007
-0.129242	-2.699127	-0.821075
-0.117035	-2.700653	-0.808258
-0.090027	-2.696533	-0.800171
-0.009766	-2.695160	-0.798187
0.049286	-2.699890	-0.796509
0.137939	-2.700806	-0.797577
0.235901	-2.600403	-0.788574
0.371552	-2.439117	-0.790863
0.338745	-2.294769	-0.775909
0.230103	-2.194519	-0.755005
-0.003967	-2.121887	-0.753784
-0.288239	-2.034760	-0.749054
-0.574036	-2.008209	-0.744781
-0.895996	-1.948547	-0.739899
-1.024780	-1.836853	-0.729370
-1.019440	-1.725769	-0.724335
-0.907440	-1.669312	-0.740051
-0.637054	-1.568604	-0.723419
-0.336609	-1.526337	-0.719757
-0.120697	-1.474762	-0.726166
-0.108643	-1.403961	-0.715027
-0.236511	-1.318359	-0.711212
-0.307770	-1.243134	-0.702820
-0.227966	-1.150665	-0.715332
0.113831	-1.028595	-0.706940
0.593109	-0.913239	-0.715179
1.153412	-0.812225	-0.689697
1.497955	-0.763245	-0.696259
1.568451	-0.750122	-0.698395
1.436920	-0.750122	-0.699310
1.118927	-0.705719	-0.671844
0.672150	-0.679932	-0.681915
0.187378	-0.667572	-0.680084
-0.224762	-0.694733	-0.650635
-0.620270	-0.702362	-0.654755
-0.976562	-0.719910	-0.652924
-1.216583	-0.710754	-0.626221
-1.247711	-0.691223	-0.603333
-1.049042	-0.705109	-0.623779
-0.677948	-0.724640	-0.608826
-0.326538	-0.747528	-0.602264
-0.031738	-0.720367	-0.600281
0.113983	-0.700531	-0.575409
0.088806	-0.673370	-0.578003
-0.036774	-0.654297	-0.576935
-0.126801	-0.646057	-0.551758
-0.272369	-0.639038	-0.560150
-0.322113	-0.587006	-0.549469
-0.334778	-0.576935	-0.578613
-0.413818	-0.567627	-0.569458
-0.458984	-0.576172	-0.566559
-0.370331	-0.593719	-0.559692
-0.359039	-0.608368	-0.554504
-0.122223	-0.617218	-0.545044
0.241089	-0.592041	-0.524445
0.423431	-0.602417	-0.520477
0.447693	-0.621490	-0.502777
0.501709	-0.627289	-0.482788
0.868378	-0.589905	-0.446625
0.903473	-0.585785	-0.441895
0.621796	-0.558014	-0.408325
0.174561	-0.560760	-0.368652
0.026245	-0.576630	-0.319214
-0.104523	-0.560303	-0.289917
-0.131378	-0.520325	-0.240021
-0.299683	-0.507812	-0.185242
-0.315857	-0.493317	-0.130615
-0.495148	-0.525055	-0.097351
-0.674896	-0.534058	-0.029144
-0.706482	-0.521088	0.036774
-0.472717	-0.511017	0.107269
-0.124512	-0.487061	0.151672
0.135651	-0.510559	0.218964
0.227356	-0.541687	0.257568
0.056152	-0.523987	0.317078
-0.505981	-0.482788	0.362549
-1.352692	-0.469055	0.416870
-1.469421	-0.461426	0.474548
-0.825958	-0.440826	0.531006
0.098419	-0.460510	0.550079
1.117859	-0.413818	0.597992
1.166534	-0.380402	0.639038
0.326843	-0.375519	0.674438
-0.464325	-0.361023	0.688934
-0.641174	-0.365295	0.712433
-0.457153	-0.366516	0.742340
-0.493011	-0.343018	0.771942
-0.701141	-0.321808	0.795898
-0.388184	-0.320129	0.803528
0.316620	-0.349426	0.783691
1.078949	-0.336151	0.802612
1.256104	-0.287933	0.811920
0.687103	-0.278931	0.832367
-0.766602	-0.267487	0.820770
-2.112885	-0.243835	0.822144
-1.861877	-0.269775	0.814972
-0.335846	-0.237732	0.794525
0.996552	-0.199738	0.795441
1.044159	-0.195770	0.781097
0.189819	-0.181580	0.778809
-0.881958	-0.168152	0.750885
-1.173859	-0.183716	0.740204
-0.113068	-0.191956	0.745544
1.059113	-0.193939	0.738678
1.326141	-0.154419	0.724945
0.869141	-0.169983	0.714264
-0.489960	-0.177612	0.699768
-1.915436	-0.181427	0.687866
-2.034302	-0.166779	0.694122
-1.053314	-0.153809	0.657043
0.529175	-0.133362	0.644531
1.743622	-0.121765	0.686798
1.865387	-0.113678	0.663300
1.334229	-0.107574	0.650177
1.306000	-0.043030	0.650635
1.502380	-0.038452	0.634460
0.781097	-0.048370	0.614319
-1.464844	-0.030365	0.621643
-2.607880	-0.041504	0.636292
-2.630463	-0.096130	0.611267
-0.758362	-0.083160	0.626984
1.306610	-0.055237	0.628815
1.849670	-0.074463	0.606384
1.266022	-0.067291	0.598602
0.424500	-0.035553	0.612488
0.380096	-0.008087	0.599518
0.385742	0.008545	0.607147
-0.179291	0.028534	0.617065
-0.815582	0.019684	0.611420
-0.785370	0.020142	0.604706
-1.492310	0.052032	0.588226
-2.421570	0.066223	0.591125
-1.961823	0.061340	0.597992
0.059052	0.035858	0.576477
2.063904	0.012360	0.584717
2.690887	0.034637	0.592194
2.468567	0.028687	0.606079
0.959167	0.056915	0.606384
-1.535034	0.032501	0.601654
-2.613525	-0.023651	0.594177
-1.988068	-0.061646	0.601501
0.016785	-0.050201	0.586395
0.192719	-0.042877	0.583344
-0.563507	-0.038910	0.586700
-0.465088	-0.064240	0.573578
1.155853	-0.125580	0.549774
2.708435	-0.123596	0.556030
2.048187	-0.113678	0.547638
-0.245667	-0.104675	0.555573
-2.286377	-0.175934	0.531616
-2.235565	-0.202789	0.550385
-1.535645	-0.249481	0.545044
-1.458740	-0.283966	0.533447
-1.126099	-0.314026	0.539703
-0.180359	-0.348206	0.516357
1.140137	-0.383759	0.535736
1.826324	-0.445099	0.510712
1.511993	-0.478058	0.500793
0.674896	-0.463104	0.521393
0.853119	-0.503235	0.516968
1.314087	-0.485077	0.511627
0.453644	-0.510712	0.509338
-0.896759	-0.558014	0.513458
-1.404419	-0.610504	0.484924
-1.025238	-0.581970	0.485229
-1.171265	-0.606232	0.460510
-0.786438	-0.679169	0.448151
-0.220795	-0.715485	0.468140
-0.077515	-0.738373	0.485535
0.504761	-0.769043	0.478363
0.889130	-0.772247	0.481110
0.837402	-0.803986	0.475464
0.776978	-0.861359	0.455780
1.030884	-0.899658	0.436249
0.875702	-0.899506	0.443726
-0.529633	-0.892944	0.434265
-1.751099	-0.876770	0.442200
-2.222595	-0.885010	0.434113
-1.543427	-0.904388	0.427856
-0.188751	-0.927124	0.424957
0.653076	-0.907898	0.406342
0.451813	-0.890808	0.389404
-0.137024	-0.892639	0.356598
-0.307770	-0.923615	0.341034
-0.074310	-0.949402	0.322571
0.208130	-0.936279	0.321503
0.725098	-0.949707	0.350952
0.936432	-0.960236	0.336456
0.514069	-0.973969	0.300140
-0.272217	-1.016235	0.302734
-0.661621	-1.040497	0.277863
-0.479889	-1.030426	0.275421
-0.233765	-0.999756	0.266113
-0.047760	-0.992889	0.257874
-0.170135	-1.001587	0.249939
-0.475311	-1.013947	0.242157
-0.418549	-1.025085	0.220490
-0.075836	-0.998688	0.214081
-0.041962	-0.988922	0.212402
-0.140533	-1.003418	0.192413
0.122681	-1.009827	0.158539
0.366516	-0.998383	0.151367
0.472565	-1.026154	0.146179
0.204620	-1.013184	0.144958
-0.101776	-0.993805	0.135498
-0.418701	-1.029053	0.121765
-0.535889	-1.074524	0.122986
-0.399780	-1.060486	0.131226
-0.593872	-1.025085	0.107880
-0.488281	-1.019745	0.085297
-0.180511	-1.001129	0.068207
0.059052	-1.004639	0.077057
0.158081	-1.031952	0.059662
-0.220337	-1.002960	0.045471
-0.386963	-0.972290	0.032654
-0.001373	-0.993805	0.004272
0.555267	-1.019135	-0.023346
0.820465	-1.008606	-0.024719
0.300903	-0.999603	-0.024414
-0.550385	-1.038666	-0.046387
-1.006317	-1.033478	-0.071716
-0.883789	-1.047668	-0.077972
-0.454102	-1.067963	-0.092316
-0.041962	-1.057129	-0.139313
-0.047302	-1.049042	-0.160522
-0.517883	-1.022339	-0.169373
-0.843201	-1.000366	-0.200500
-0.809021	-0.985565	-0.219574
-0.233917	-0.998230	-0.232544
0.343170	-1.024170	-0.273895
0.766144	-0.999146	-0.278473
1.012878	-0.996399	-0.312195
0.908966	-1.010590	-0.332184
0.391235	-1.032257	-0.324249
-0.360870	-1.054687	-0.366058
-0.562439	-1.031342	-0.381470
-0.365906	-1.021423	-0.385590
-0.025177	-1.001892	-0.399933
0.269165	-1.064606	-0.406342
0.359344	-1.088257	-0.415802
0.243835	-1.064758	-0.411072
-0.080719	-1.049652	-0.400085
-0.384064	-1.044617	-0.399323
-0.470428	-1.028748	-0.392456
-0.422974	-1.018219	-0.375977
-0.316162	-1.033783	-0.358124
-0.175018	-1.061554	-0.378418
0.101776	-1.029510	-0.364685
0.352020	-1.032257	-0.367889
0.323639	-1.054840	-0.358734
-0.021210	-1.065216	-0.352783
0.512238	-1.087646	-0.323486
1.258240	-1.073151	-0.332794
1.025085	-1.068268	-0.321808
0.488739	-1.063538	-0.312500
-0.163727	-1.099854	-0.319977
-0.894165	-1.122131	-0.305023
-1.221313	-1.113434	-0.306549
-1.020508	-1.093750	-0.292511
-0.392456	-1.070251	-0.299835
0.081482	-1.087494	-0.270996
0.082855	-1.102295	-0.270538
-0.110168	-1.093140	-0.283966
-0.371704	-1.058807	-0.271912
-0.477753	-1.029816	-0.267487
-0.520477	-1.044464	-0.280609
-0.429993	-1.041718	-0.278320
-0.297089	-1.079407	-0.290527
-0.184937	-1.119843	-0.294800
-0.051727	-1.060944	-0.310974
0.040436	-1.041870	-0.294495
0.147858	-1.051331	-0.300140
0.195007	-1.077881	-0.319214
0.213928	-1.084137	-0.317688
0.152893	-1.072540	-0.333710
0.051270	-1.067352	-0.325165
-0.030060	-1.040497	-0.327301
-0.110321	-1.040955	-0.331726
-0.183563	-1.046295	-0.342712
-0.241089	-1.062775	-0.336151
-0.240631	-1.025543	-0.334473
-0.209503	-0.975342	-0.361023
-0.183716	-1.011505	-0.354156
-0.140228	-1.023102	-0.373688
-0.144806	-1.044312	-0.374756
-0.068512	-1.087189	-0.379944
0.007477	-1.097717	-0.387268
0.065460	-1.072998	-0.390778
0.077362	-1.081696	-0.391693
0.058746	-1.081543	-0.404053
0.054626	-1.096497	-0.406342
0.043182	-1.070251	-0.418701
0.030060	-1.060791	-0.394135
0.024567	-1.064758	-0.432281
-0.001678	-1.062927	-0.439758
-0.019531	-1.041412	-0.439453
-0.093689	-0.994873	-0.445099
-0.117493	-0.965729	-0.469360
-0.115814	-0.921631	-0.459290
-0.169983	-0.912323	-0.458832
-0.189056	-0.918884	-0.467834
-0.218506	-0.938416	-0.470428
-0.233154	-0.915070	-0.462341
-0.243378	-0.904999	-0.467987
-0.238647	-0.895996	-0.461273
-0.149231	-0.926056	-0.456543
-0.088043	-0.914154	-0.461121
-0.036316	-0.898743	-0.450897
-0.016022	-0.892639	-0.459747
-0.018768	-0.847473	-0.458984
-0.036011	-0.864105	-0.457611
-0.014801	-0.876770	-0.458221
-0.024719	-0.872955	-0.452576
-0.095520	-0.840302	-0.463104
-0.158081	-0.818024	-0.459747
-0.158844	-0.809174	-0.454865
-0.139771	-0.779266	-0.462799
-0.154114	-0.765381	-0.446777
-0.234528	-0.778961	-0.453491
-0.220184	-0.781097	-0.436859
-0.235596	-0.773926	-0.445404
-0.203400	-0.800629	-0.433655
-0.212250	-0.824432	-0.447083
-0.153046	-0.838470	-0.424347
-0.139771	-0.812988	-0.439758
-0.092010	-0.800476	-0.420380
-0.057678	-0.750275	-0.414429
-0.063019	-0.715637	-0.413055
-0.000458	-0.692444	-0.418854
-0.016937	-0.697479	-0.450134
0.003662	-0.647430	-0.422363
-0.011749	-0.632172	-0.434570
0.005951	-0.630646	-0.424194
0.044098	-0.646362	-0.442963
0.071564	-0.643158	-0.429535
0.108795	-0.675507	-0.435333
0.111542	-0.677643	-0.422363
0.037689	-0.672150	-0.428162
-0.017700	-0.744019	-0.440979
-0.081482	-0.779419	-0.412903
-0.155334	-0.820465	-0.434723
-0.184479	-0.817108	-0.419769
-0.190277	-0.847626	-0.442810
-0.190430	-0.845184	-0.423126
-0.207520	-0.887451	-0.423431
-0.170746	-0.915375	-0.412140
-0.150604	-0.893555	-0.421753
-0.077515	-0.925903	-0.415192
-0.012817	-0.956268	-0.412140
0.014038	-1.016693	-0.412750
0.028534	-1.104126	-0.412903
0.020447	-1.158905	-0.406189
0.036469	-1.188049	-0.429382
-0.034637	-1.187897	-0.417175
-0.069885	-1.208954	-0.414734
-0.106659	-1.252441	-0.402985
-0.146637	-1.269989	-0.406494
-0.207977	-1.258087	-0.413055
-0.248108	-1.269073	-0.397491
-0.189667	-1.284637	-0.391998
-0.145874	-1.256104	-0.396271
-0.071411	-1.257172	-0.385437
-0.080719	-1.249847	-0.382080
-0.114746	-1.216583	-0.405884
-0.056915	-1.204987	-0.390320
-0.034485	-1.188660	-0.401306
-0.012665	-1.191711	-0.379791
-0.045471	-1.201630	-0.375214
-0.068970	-1.227417	-0.393066
-0.079803	-1.245880	-0.369720
-0.120544	-1.232910	-0.373688
-0.148773	-1.247253	-0.381317
-0.179901	-1.293640	-0.368195
-0.187988	-1.307068	-0.373688
-0.201263	-1.298218	-0.368652
-0.159454	-1.303253	-0.361023
-0.091553	-1.305695	-0.354462
-0.076447	-1.321869	-0.362549
-0.041046	-1.340027	-0.353088
-0.109863	-1.345215	-0.357513
-0.090332	-1.314392	-0.333099
-0.080261	-1.304169	-0.353851
-0.064697	-1.305084	-0.340729
-0.059204	-1.335907	-0.321198
-0.104675	-1.371918	-0.324860
-0.089111	-1.369934	-0.318146
-0.095978	-1.347961	-0.306549
-0.073395	-1.342163	-0.314789
-0.073090	-1.352386	-0.304871
-0.081329	-1.346741	-0.287018
-0.079498	-1.320343	-0.297089
-0.111237	-1.287689	-0.304108
-0.142822	-1.297760	-0.296478
-0.147705	-1.269684	-0.279083
-0.146637	-1.264954	-0.273590
-0.116119	-1.294403	-0.276642
-0.146332	-1.289062	-0.284729
-0.161285	-1.283722	-0.277405
-0.194397	-1.287079	-0.264282
-0.177917	-1.292877	-0.274506
-0.167236	-1.268005	-0.285645
-0.163879	-1.224365	-0.277557
-0.148468	-1.071320	-0.271759
-0.116425	-0.858154	-0.279846
-0.040436	-0.705872	-0.283051
-0.006256	-0.619812	-0.275726
0.000000	-0.554810	-0.266876
0.031433	-0.604553	-0.280762
0.045624	-0.638580	-0.284271
0.042725	-0.669098	-0.281525
-0.027313	-0.551758	-0.275116
-0.040588	-0.414124	-0.278015
-0.066681	-0.288086	-0.283203
-0.061493	-0.154877	-0.270996
-0.029755	-0.111542	-0.276794
-0.002441	-0.175934	-0.277252
-0.008698	-0.187531	-0.265961
-0.028076	-0.074158	-0.270233
-0.015564	0.169830	-0.266876
-0.058594	0.308838	-0.251007
-0.100250	0.416260	-0.250549
-0.076294	0.232391	-0.226135
-0.116730	-0.336609	-0.242462
-0.195160	-1.119080	-0.232239
-0.249634	-2.208710	-0.236511
-0.231476	-2.706909	-0.235138
-0.221405	-2.697906	-0.221100
-0.193787	-2.702179	-0.217438
-0.107422	-2.694702	-0.196533
-0.072021	-2.692566	-0.205231
0.026093	-2.707825	-0.204926
0.044708	-2.625275	-0.192261
0.055695	-2.531433	-0.179901
0.029297	-2.424164	-0.175629
0.024567	-2.242432	-0.178375
0.044098	-2.164154	-0.166779
0.013275	-2.119141	-0.163727
-0.048981	-2.091522	-0.155640
-0.105743	-2.160187	-0.174561
-0.056763	-2.236786	-0.153503
-0.017242	-2.424774	-0.149078
-0.011749	-2.561798	-0.144043
0.036163	-2.649384	-0.148163
0.024872	-2.707520	-0.148468
0.051270	-2.699432	-0.149841
0.060272	-2.701263	-0.126648
0.062103	-2.696838	-0.141449
0.055084	-2.701111	-0.141296
-0.003510	-2.696075	-0.150299
-0.051880	-2.693634	-0.163269
-0.098877	-2.700195	-0.146179
-0.103302	-2.707062	-0.154419
-0.125885	-2.693176	-0.152588
-0.226746	-2.686005	-0.140991
-0.322266	-2.703857	-0.147858
-0.529785	-2.704620	-0.158539
-0.673676	-2.625122	-0.161896
-0.672302	-2.553253	-0.150452
-0.527039	-2.492065	-0.166016
-0.298767	-2.406616	-0.158844
-0.069885	-2.345428	-0.166931
0.056458	-2.294006	-0.171967
-0.091858	-2.218475	-0.170593
-0.325928	-2.093201	-0.192413
-0.517883	-1.994781	-0.182495
-0.541840	-1.916962	-0.200348
-0.288849	-1.851196	-0.189514
0.111542	-1.786957	-0.196686
0.540771	-1.747131	-0.205688
0.723877	-1.649933	-0.202179
0.714111	-1.517029	-0.175018
0.470276	-1.409607	-0.166168
0.138855	-1.354675	-0.164185
-0.140381	-1.254425	-0.166016
-0.369110	-1.156311	-0.148773
-0.497894	-1.144867	-0.136414
-0.634003	-1.105194	-0.131378
-0.718231	-1.091309	-0.125580
-0.821228	-1.092529	-0.120392
-0.811157	-1.066437	-0.120239
-0.650635	-1.043549	-0.109558
-0.413971	-1.003418	-0.117340
-0.165863	-1.004791	-0.123291
0.055389	-1.036987	-0.104675
0.225983	-1.056213	-0.107880
0.331421	-1.054382	-0.115967
0.368500	-1.045685	-0.109711
0.380859	-1.053619	-0.102844
0.405731	-1.083069	-0.113220
0.406647	-1.101532	-0.120850
0.375214	-1.085052	-0.092468
0.370941	-1.057587	-0.084991
0.336761	-1.028442	-0.061340
0.246582	-0.977936	-0.070953
0.272369	-0.986786	-0.065308
0.228119	-0.989990	-0.051880
0.325012	-0.938110	-0.034332
0.183868	-0.914307	-0.044403
0.016327	-0.923615	-0.032806
0.001221	-0.968018	-0.014954
0.020447	-0.984039	-0.016785
-0.060272	-0.977478	0.004730
-0.064545	-0.983734	0.039520
-0.139923	-0.992889	0.055695
-0.462952	-0.990753	0.072784
-0.729980	-1.017914	0.085449
-0.736542	-1.033020	0.127716
-0.942535	-1.001740	0.152588
-1.057892	-0.982971	0.210419
-0.896759	-0.959778	0.263977
-0.700073	-0.940552	0.303650
-0.648346	-0.931854	0.377502
-0.566101	-0.933533	0.408020
0.158081	-0.893707	0.485687
0.702972	-0.869598	0.539856
0.546112	-0.849152	0.589600
0.262604	-0.838623	0.650330
0.098114	-0.855865	0.725555
0.155640	-0.872345	0.792236
0.431061	-0.841522	0.861664
0.264130	-0.831299	0.917816
0.094299	-0.823975	0.990906
0.297852	-0.809479	1.033630
0.244904	-0.809479	1.083832
-0.155029	-0.790253	1.139374
-0.523682	-0.751495	1.208191
-0.500793	-0.743256	1.245728
0.009003	-0.737915	1.322784
0.350800	-0.754852	1.354370
0.091400	-0.713501	1.373749
-0.483398	-0.695038	1.404419
-1.006165	-0.658722	1.445160
-1.100616	-0.704193	1.465149
-0.811462	-0.709534	1.464844
0.166321	-0.694427	1.506195
0.806885	-0.710602	1.498871
0.370178	-0.684814	1.537170
-1.108398	-0.648804	1.546783
-1.881866	-0.675812	1.534576
0.087585	-0.695648	1.570587
1.600342	-0.649567	1.561127
1.166229	-0.611572	1.531830
0.428314	-0.586853	1.542358
-0.460205	-0.560150	1.511841
-0.900726	-0.535431	1.539154
-0.723724	-0.545502	1.535797
-0.673523	-0.508423	1.507568
-0.108032	-0.503235	1.509857
1.111298	-0.494385	1.493530
1.490936	-0.504913	1.484833
1.072388	-0.502625	1.481323
-0.620575	-0.515137	1.435699
-1.699524	-0.499115	1.462250
-1.098175	-0.479431	1.426239
-0.290222	-0.468750	1.441193
-0.544128	-0.496979	1.403961
-0.388947	-0.517731	1.394653
0.884857	-0.492554	1.354675
0.990753	-0.451965	1.361389
0.649719	-0.414886	1.357269
0.264893	-0.398560	1.365204
0.086823	-0.414886	1.350250
-0.381317	-0.412903	1.324005
-0.662689	-0.368195	1.293335
0.028839	-0.345306	1.301422
1.403961	-0.351562	1.316223
1.641235	-0.361328	1.298828
0.655518	-0.369263	1.280212
-0.626984	-0.364685	1.301880
-1.371765	-0.363312	1.280060
-1.237640	-0.350952	1.294556
-0.635986	-0.368347	1.290131
-0.697021	-0.385590	1.269379
-1.149750	-0.374603	1.265259
-0.671387	-0.363922	1.257935
0.564728	-0.362091	1.242523
0.994415	-0.315552	1.270447
1.143341	-0.324249	1.262817
1.230011	-0.328522	1.236877
0.337067	-0.301208	1.229401
-1.905823	-0.241852	1.261139
-2.623138	-0.276642	1.216278
-1.941223	-0.291748	1.222992
-0.706787	-0.287018	1.238861
0.484314	-0.328522	1.214752
1.581268	-0.332489	1.224213
2.694244	-0.304108	1.245422
2.690277	-0.325775	1.211243
1.701508	-0.372620	1.190796
-0.840149	-0.392914	1.210327
-2.654572	-0.399780	1.221771
-2.606201	-0.410614	1.192474
-0.968170	-0.426025	1.186523
-0.172272	-0.427551	1.202698
0.117340	-0.479584	1.193390
0.445251	-0.492096	1.159821
0.969391	-0.502625	1.151886
1.607819	-0.539246	1.151733
0.974426	-0.552063	1.143341
-0.390472	-0.593567	1.128998
-0.761719	-0.661774	1.110077
-0.369263	-0.704956	1.125336
-0.353699	-0.686188	1.139984
-1.194611	-0.720520	1.124573
-1.938477	-0.779877	1.082764
-1.568451	-0.838318	1.066589
-0.183563	-0.846710	1.064606
1.372681	-0.856476	1.073151
1.632080	-0.846100	1.079559
0.547333	-0.866394	1.062164
-0.493164	-0.882111	1.041107
-1.716919	-0.926666	1.041412
-1.989136	-0.955658	0.989227
-0.992737	-0.968170	0.987854
0.628967	-0.984192	0.975952
1.475372	-1.019287	0.987396
1.995239	-1.067657	0.938721
1.875610	-1.099548	0.929108
0.870056	-1.089935	0.952911
-0.410309	-1.075745	0.939789
-1.129150	-1.108398	0.951385
-1.123047	-1.157227	0.925446
-1.036377	-1.183777	0.931396
-1.138763	-1.203461	0.924683
-1.393585	-1.181488	0.911865
-0.977020	-1.192780	0.905914
0.340271	-1.208344	0.901031
1.544037	-1.193848	0.889587
1.703033	-1.244202	0.883789
1.108551	-1.217804	0.869751
0.509949	-1.215820	0.858612
0.334930	-1.229248	0.854645
0.079041	-1.244049	0.852051
-0.306091	-1.273346	0.855865
-0.623932	-1.272888	0.841217
-0.589752	-1.291199	0.832825
-0.331879	-1.279449	0.826569
-0.075378	-1.299133	0.823364
-0.172882	-1.324005	0.802155
-0.890808	-1.341248	0.802155
-0.816650	-1.342316	0.793762
-0.091248	-1.342010	0.787811
1.026001	-1.329803	0.793610
1.601257	-1.300354	0.796051
0.950775	-1.316071	0.761261
-0.637207	-1.317902	0.765991
-1.953278	-1.278992	0.738983
-1.660156	-1.300964	0.730896
-0.278168	-1.298218	0.707855
0.710297	-1.309204	0.680695
0.630951	-1.317596	0.696259
-0.085602	-1.331787	0.659485
-0.829620	-1.325226	0.650940
-0.774231	-1.325531	0.624084
-0.013580	-1.341248	0.620728
0.614777	-1.385345	0.576630
0.802155	-1.386108	0.563202
0.570221	-1.349182	0.541229
0.276184	-1.324768	0.529175
-0.031738	-1.328125	0.509033
-0.289154	-1.329803	0.497284
-0.852356	-1.331177	0.486450
-1.306458	-1.320648	0.458832
-1.251373	-1.302185	0.432892
-0.593719	-1.294098	0.392609
0.119934	-1.309052	0.405579
0.473022	-1.334534	0.348511
0.632172	-1.348572	0.333252
0.325928	-1.342773	0.322418
-0.038147	-1.350861	0.299072
-0.295868	-1.341095	0.270691
-0.374756	-1.374969	0.243835
-0.344696	-1.392517	0.223389
-0.539093	-1.393127	0.183258
-0.671082	-1.352997	0.142365
-0.624237	-1.347046	0.126343
-0.219574	-1.332092	0.102081
-0.061035	-1.315918	0.097351
-0.359344	-1.324463	0.061035
-0.205231	-1.313629	0.004272
0.485077	-1.282806	0.004272
0.789948	-1.282806	-0.037537
1.059723	-1.302185	-0.060730
1.280518	-1.314697	-0.088196
1.094208	-1.332397	-0.113373
0.472870	-1.333008	-0.117340
-0.364075	-1.311188	-0.130157
-0.877838	-1.318512	-0.160217
-0.895844	-1.342010	-0.178680
-0.675659	-1.386414	-0.206909
-0.333557	-1.337433	-0.204315
-0.104218	-1.320190	-0.217133
-0.036163	-1.319733	-0.204010
-0.050201	-1.296082	-0.193176
-0.151367	-1.324615	-0.198975
-0.166779	-1.323395	-0.200195
-0.148468	-1.292267	-0.206299
-0.116882	-1.267395	-0.184784
-0.069427	-1.294098	-0.189362
-0.007629	-1.313171	-0.179901
0.058289	-1.320953	-0.161285
0.043488	-1.329956	-0.141602
-0.098267	-1.325836	-0.136261
-0.095520	-1.310577	-0.113831
-0.093536	-1.344147	-0.112305
-0.387878	-1.371918	-0.120544
-0.297699	-1.384583	-0.133057
0.405884	-1.351624	-0.115967
0.570221	-1.318054	-0.101929
0.411682	-1.318817	-0.110016
0.121002	-1.297150	-0.110626
-0.489655	-1.322174	-0.106659
-0.801086	-1.300659	-0.106659
-0.502167	-1.295319	-0.108795
0.162201	-1.293488	-0.118256
0.547943	-1.304321	-0.115356
0.359955	-1.323700	-0.107422
-0.183563	-1.336212	-0.106659
-0.768280	-1.337738	-0.115967
-0.945435	-1.304932	-0.102692
-0.834656	-1.319427	-0.112457
-0.569153	-1.343079	-0.132751
-0.358582	-1.377716	-0.156555
-0.160828	-1.360016	-0.142822
-0.037994	-1.332550	-0.166168
-0.029449	-1.324005	-0.187073
-0.002899	-1.325378	-0.203857
0.087280	-1.326294	-0.197144
0.214233	-1.340027	-0.219879
0.243225	-1.284637	-0.237122
0.167542	-1.258850	-0.230865
-0.001526	-1.245422	-0.258789
-0.180359	-1.256866	-0.287476
-0.242920	-1.274261	-0.280609
-0.250397	-1.296234	-0.293579
-0.216675	-1.274261	-0.307007
-0.163574	-1.283722	-0.331116
-0.138550	-1.287384	-0.335388
-0.108337	-1.304474	-0.350189
-0.033264	-1.290588	-0.356140
0.130768	-1.231537	-0.380859
0.227203	-1.215820	-0.395813
0.247345	-1.160431	-0.415192
0.248260	-1.153259	-0.419312
0.232544	-1.138611	-0.423889
0.206146	-1.116486	-0.453644
0.110321	-1.073608	-0.458527
0.042114	-1.045990	-0.474091
-0.016632	-1.069794	-0.481110
-0.071106	-1.107941	-0.502930
-0.108795	-1.106567	-0.504608
-0.134430	-1.089478	-0.514679
-0.064697	-1.085510	-0.523987
-0.067444	-1.087494	-0.523529
-0.147858	-1.102295	-0.539398
-0.216522	-1.113281	-0.545502
-0.203094	-1.111298	-0.549469
-0.181274	-1.087646	-0.561829
-0.259399	-1.056061	-0.550842
-0.321045	-1.015167	-0.542908
-0.392303	-0.984802	-0.530701
-0.384216	-0.972595	-0.535889
-0.325470	-0.914154	-0.541229
-0.266876	-0.907440	-0.532532
-0.212402	-0.886230	-0.539703
-0.177612	-0.932770	-0.549469
-0.132294	-0.943451	-0.535278
-0.128021	-0.943604	-0.539246
-0.127106	-0.981140	-0.540314
-0.089417	-0.941467	-0.552673
-0.075836	-0.909576	-0.526581
-0.023193	-0.949707	-0.552063
0.002136	-0.925140	-0.560303
0.018463	-0.881195	-0.554657
0.037689	-0.900269	-0.535278
0.002594	-0.877228	-0.552521
-0.045166	-0.842743	-0.546112
-0.109100	-0.853882	-0.545197
-0.092621	-0.875244	-0.547180
-0.123596	-0.842133	-0.557556
-0.131989	-0.847321	-0.554199
-0.142365	-0.859680	-0.574951
-0.136108	-0.894165	-0.563354
-0.125275	-0.944824	-0.574799
-0.125275	-0.977631	-0.572968
-0.081329	-1.015625	-0.564575
-0.086517	-1.020203	-0.550232
-0.113525	-1.051788	-0.570831
-0.123138	-1.121826	-0.588684
-0.120850	-1.192474	-0.596619
-0.090027	-1.171875	-0.604401
-0.099030	-1.183472	-0.602417
-0.055084	-1.179504	-0.612946
-0.066376	-1.223755	-0.601654
-0.016327	-1.270599	-0.603485
0.002747	-1.324463	-0.604706
-0.013580	-1.312714	-0.627594
0.027313	-1.332703	-0.628052
0.040131	-1.348724	-0.616455
0.035400	-1.389923	-0.624390
0.011444	-1.416779	-0.643463
0.014038	-1.438293	-0.646362
0.000763	-1.455994	-0.645905
-0.067596	-1.432800	-0.648651
-0.103149	-1.467743	-0.643005
-0.122223	-1.485443	-0.668793
-0.092010	-1.472931	-0.669861
-0.096588	-1.460419	-0.667419
-0.119934	-1.442261	-0.665283
-0.121918	-1.439362	-0.675964
-0.145874	-1.423798	-0.670166
-0.104065	-1.454926	-0.664520
-0.117493	-1.435089	-0.663605
-0.146637	-1.419678	-0.685425
-0.173035	-1.430359	-0.658722
-0.219879	-1.441345	-0.682373
-0.180664	-1.481171	-0.694733
-0.166931	-1.486969	-0.677948
-0.114288	-1.486816	-0.688171
-0.070496	-1.492157	-0.664062
-0.069427	-1.502380	-0.676880
-0.114441	-1.529541	-0.674591
-0.123749	-1.543427	-0.659027
-0.117798	-1.513977	-0.688477
-0.152588	-1.507721	-0.674438
-0.164032	-1.495972	-0.663605
-0.182953	-1.470642	-0.655975
-0.189667	-1.483307	-0.656128
-0.171204	-1.471252	-0.633545
-0.195007	-1.457672	-0.654144
-0.207520	-1.454773	-0.647125
-0.235138	-1.454315	-0.643921
-0.204163	-1.467438	-0.640106
-0.203094	-1.478424	-0.619965
-0.186310	-1.481171	-0.626831
-0.142212	-1.506653	-0.640869
-0.101624	-1.490936	-0.607910
-0.015411	-1.517639	-0.620728
-0.006866	-1.557770	-0.627594
-0.015869	-1.558075	-0.613861
-0.021362	-1.512146	-0.604706
-0.021667	-1.496124	-0.611420
-0.003204	-1.501465	-0.601349
-0.068665	-1.499634	-0.601196
-0.064392	-1.480713	-0.607910
-0.085602	-1.438904	-0.602722
-0.048370	-1.324615	-0.602264
0.032043	-1.132050	-0.604401
0.070496	-0.959320	-0.602570
0.108185	-0.836334	-0.602112
0.063324	-0.721741	-0.607605
0.081329	-0.703583	-0.607910
0.106659	-0.739899	-0.594940
0.098724	-0.795441	-0.611267
0.140991	-0.839691	-0.623932
0.107117	-0.732727	-0.616608
0.032349	-0.544739	-0.629730
-0.050812	-0.410004	-0.624542
-0.054626	-0.285492	-0.625000
-0.033722	-0.248260	-0.625305
-0.083008	-0.298004	-0.629120
-0.090332	-0.285187	-0.646973
-0.103302	-0.096741	-0.652161
-0.061493	0.169983	-0.654297
-0.085144	0.244904	-0.675049
-0.099182	0.301514	-0.672607
-0.057678	-0.011749	-0.658417
-0.079346	-0.532837	-0.670166
-0.114441	-1.439362	-0.669403
-0.166016	-2.485352	-0.657806
-0.194397	-2.705841	-0.671234
-0.201416	-2.703552	-0.680695
-0.157471	-2.692566	-0.682068
-0.116272	-2.702789	-0.670166
-0.120544	-2.703857	-0.683441
-0.075989	-2.691498	-0.695648
-0.053253	-2.705383	-0.701141
-0.041504	-2.705078	-0.694733
-0.059357	-2.595520	-0.699310
-0.068054	-2.436676	-0.705566
-0.024261	-2.340851	-0.685577
-0.029449	-2.325287	-0.711670
-0.075836	-2.359619	-0.711670
-0.178528	-2.451172	-0.708923
-0.154877	-2.617950	-0.713959
-0.075836	-2.692566	-0.687256
-0.044708	-2.695160	-0.713806
-0.040131	-2.696381	-0.720825
-0.086060	-2.690582	-0.694580
-0.083160	-2.691650	-0.699921
-0.129700	-2.700348	-0.698242
-0.153046	-2.696533	-0.698853
-0.119476	-2.684479	-0.676880
-0.123901	-2.691193	-0.695343
-0.054779	-2.711029	-0.692596
-0.010834	-2.693481	-0.700531
0.048676	-2.701874	-0.686188
0.066986	-2.695770	-0.691986
0.021210	-2.699585	-0.692444
-0.068207	-2.695312	-0.681152
-0.165558	-2.702179	-0.691528
-0.176697	-2.694702	-0.696564
-0.133820	-2.600403	-0.690002
-0.011139	-2.516022	-0.661316
-0.216827	-2.491608	-0.672913
-0.541687	-2.448730	-0.678864
-0.774078	-2.362671	-0.660248
-0.861206	-2.261810	-0.680847
-0.726166	-2.152863	-0.681458
-0.498657	-2.056732	-0.663300
-0.248413	-1.974792	-0.662079
-0.199890	-1.932526	-0.667725
-0.406647	-1.865540	-0.679779
-0.624695	-1.761627	-0.695953
-0.677490	-1.650238	-0.690460
-0.473328	-1.541290	-0.686798
0.020294	-1.468506	-0.694275
0.759430	-1.371002	-0.680695
1.469879	-1.300507	-0.673065
1.828308	-1.234436	-0.688171
1.859589	-1.238098	-0.686188
1.530762	-1.242676	-0.681152
1.006165	-1.251068	-0.682831
0.415802	-1.230774	-0.664215
-0.157013	-1.195984	-0.648956
-0.597382	-1.177521	-0.646210
-0.963135	-1.181030	-0.662689
-1.178284	-1.209717	-0.629120
-1.257019	-1.192780	-0.641937
-1.062622	-1.163635	-0.643616
-0.730896	-1.148224	-0.637665
-0.437317	-1.149597	-0.643005
-0.162201	-1.172180	-0.641632
0.028076	-1.194305	-0.651550
0.064087	-1.195831	-0.642395
0.030060	-1.186981	-0.645752
0.048218	-1.161652	-0.640411
0.035706	-1.182556	-0.632782
-0.024261	-1.224823	-0.668945
-0.074158	-1.193390	-0.636597
-0.309906	-1.146851	-0.633087
-0.375519	-1.134338	-0.642700
-0.363770	-1.136017	-0.644531
-0.366364	-1.123505	-0.639648
-0.194550	-1.154327	-0.638733
0.177307	-1.113739	-0.630493
0.486145	-1.078186	-0.614471
0.683136	-1.062927	-0.606079
0.743713	-1.079102	-0.586853
0.586548	-1.083069	-0.565338
0.379486	-1.098175	-0.537720
0.090485	-1.093597	-0.512390
-0.310669	-1.063538	-0.462952
-0.535583	-1.075592	-0.433044
-0.395508	-1.074219	-0.391846
-0.092468	-1.105499	-0.348969
0.177765	-1.080475	-0.276489
0.020752	-1.048584	-0.231018
-0.341644	-1.033478	-0.203094
-0.370026	-1.023407	-0.117187
-0.432281	-0.989838	-0.055542
-0.257721	-1.008606	-0.001373
-0.103607	-0.985260	0.057983
-0.189362	-0.942841	0.118408
-0.420685	-0.934143	0.185547
-0.691223	-0.942078	0.232697
-0.757294	-0.957794	0.288391
-0.167389	-0.933990	0.359039
0.453033	-0.925751	0.408783
0.478668	-0.901031	0.437775
0.071564	-0.910187	0.492706
-0.382690	-0.934296	0.541077
-0.862885	-0.920868	0.594330
-1.172638	-0.901184	0.634155
-0.749664	-0.878754	0.661621
0.063324	-0.840454	0.680542
0.830841	-0.808563	0.741119
1.221771	-0.829773	0.760803
1.114655	-0.821381	0.771790
-0.065002	-0.769043	0.795746
-0.755310	-0.742493	0.808411
-0.564117	-0.747528	0.826721
-0.037537	-0.751953	0.839233
0.669250	-0.749054	0.861359
0.854797	-0.722198	0.865326
0.189514	-0.695953	0.879822
-0.971527	-0.690155	0.895538
-1.719666	-0.715942	0.863953
-1.385345	-0.750122	0.845032
-0.711517	-0.709229	0.860443
-0.401764	-0.685425	0.841064
-0.160370	-0.644226	0.855103
0.380249	-0.643616	0.865631
0.531158	-0.636139	0.855713
0.812988	-0.632629	0.850677
0.699463	-0.599518	0.822754
0.463562	-0.568542	0.808258
0.449066	-0.563049	0.786285
-0.154724	-0.554810	0.785065
-1.243134	-0.575714	0.769196
-1.473694	-0.563049	0.795746
-1.526184	-0.559540	0.790710
-1.161041	-0.527802	0.815125
-0.520477	-0.545502	0.813293
0.432281	-0.575409	0.782166
1.350250	-0.571136	0.776520
1.188202	-0.558624	0.788574
0.917511	-0.535431	0.787201
1.745300	-0.524292	0.772858
1.634216	-0.505066	0.776062
-0.186768	-0.482483	0.802155
-1.210022	-0.506439	0.791321
-1.114044	-0.466461	0.775299
-0.910645	-0.449677	0.783844
-1.114197	-0.434723	0.786133
-1.240234	-0.462799	0.766296
-0.546875	-0.472107	0.752106
0.807190	-0.474091	0.751495
1.715851	-0.436554	0.785370
1.745300	-0.415344	0.793762
1.167755	-0.414124	0.790405
0.034485	-0.444031	0.795135
-1.637573	-0.448608	0.783691
-2.233582	-0.437164	0.780487
-1.125031	-0.410919	0.806580
0.206604	-0.401154	0.800323
0.919189	-0.396729	0.833435
0.588837	-0.407562	0.835266
-0.597076	-0.386047	0.813446
-1.107941	-0.388184	0.803680
-0.148010	-0.365143	0.799713
0.513916	-0.402069	0.790253
-0.269775	-0.407715	0.804443
-0.885162	-0.435791	0.805969
-0.558777	-0.457153	0.800171
0.187225	-0.445709	0.806732
0.672302	-0.474091	0.789337
1.040649	-0.505524	0.765533
1.541443	-0.554810	0.752716
1.642151	-0.564270	0.740509
0.241547	-0.546417	0.745850
-2.057190	-0.585480	0.724487
-2.608948	-0.608368	0.734863
-1.430206	-0.645905	0.745239
0.181427	-0.695953	0.752869
0.682831	-0.688477	0.767822
0.244293	-0.692596	0.742340
-0.106049	-0.748291	0.716553
-0.020294	-0.774994	0.706482
0.727844	-0.812225	0.691223
1.425781	-0.866241	0.674744
1.180725	-0.901794	0.685577
-1.084290	-0.897675	0.691833
-2.608948	-0.941010	0.686340
-2.591095	-1.033173	0.648041
0.202332	-1.083527	0.641327
1.923523	-1.068573	0.652466
1.295166	-1.074982	0.638580
-0.122223	-1.078949	0.633698
-0.807190	-1.105194	0.635986
-0.353699	-1.133270	0.611420
1.136322	-1.164246	0.605621
2.402496	-1.151276	0.610809
1.843109	-1.137085	0.586548
-0.208588	-1.161194	0.598755
-2.184296	-1.198730	0.584564
-2.630615	-1.223907	0.573425
-2.218018	-1.252136	0.586853
0.035095	-1.261139	0.597992
1.326904	-1.258545	0.592499
1.500092	-1.285858	0.578766
1.221008	-1.313629	0.565186
0.805817	-1.330566	0.536957
0.070038	-1.313934	0.543213
-1.003265	-1.301727	0.516663
-1.575928	-1.326447	0.493469
-0.778351	-1.309204	0.514374
0.696716	-1.325226	0.508575
1.359253	-1.307373	0.501404
0.933228	-1.267090	0.490723
0.182800	-1.284485	0.475922
-0.472870	-1.286774	0.467377
-1.457214	-1.293945	0.428009
-1.851501	-1.340637	0.425720
-1.373291	-1.344299	0.415802
0.004578	-1.332092	0.427704
1.226349	-1.353912	0.413666
1.454926	-1.368561	0.402679
0.705261	-1.363220	0.380554
-0.301208	-1.356964	0.393677
-1.066437	-1.332245	0.364685
-1.346893	-1.331482	0.334930
-0.904083	-1.325684	0.348969
0.161591	-1.333466	0.315094
1.124268	-1.315155	0.315704
0.984650	-1.277008	0.314941
-0.037079	-1.260376	0.308990
-1.243134	-1.235199	0.293884
-1.529694	-1.238556	0.289154
-0.906677	-1.267242	0.273895
-0.509033	-1.273651	0.283051
-0.347137	-1.271362	0.281525
-0.142670	-1.283112	0.277100
-0.034790	-1.305389	0.245667
0.030823	-1.319733	0.232086
0.301666	-1.346283	0.225067
0.917206	-1.339264	0.192719
1.242981	-1.357727	0.167236
1.074829	-1.310120	0.163422
0.558624	-1.322174	0.151978
-0.336151	-1.340332	0.119781
-0.929871	-1.352997	0.116882
-1.154022	-1.329651	0.095062
-1.158600	-1.317749	0.064087
-1.108398	-1.309052	0.062256
-0.948029	-1.292419	0.043793
-0.662384	-1.327362	0.015717
-0.379028	-1.300201	-0.002289
0.023804	-1.290894	-0.021210
0.288544	-1.311798	-0.040283
0.499725	-1.335144	-0.076752
0.748596	-1.389313	-0.101318
1.367798	-1.391602	-0.137634
1.781464	-1.379242	-0.171814
1.713562	-1.369781	-0.199890
1.523437	-1.380310	-0.231781
1.203461	-1.351624	-0.217285
0.412750	-1.381989	-0.224609
-0.793762	-1.354675	-0.266724
-1.617584	-1.301270	-0.291443
-1.598969	-1.313934	-0.348206
-1.245117	-1.340027	-0.368958
-0.807037	-1.365814	-0.360565
-0.517578	-1.361389	-0.352631
-0.305328	-1.407928	-0.365753
-0.160675	-1.380157	-0.375671
-0.174408	-1.390381	-0.383453
-0.237122	-1.375122	-0.392151
-0.300598	-1.398468	-0.414276
-0.278931	-1.354828	-0.386810
-0.054932	-1.364899	-0.395966
0.266724	-1.327515	-0.402832
0.252228	-1.330261	-0.413666
-0.020447	-1.337280	-0.423737
0.105743	-1.361847	-0.413055
0.932770	-1.335907	-0.433655
1.564789	-1.290283	-0.430450
1.617889	-1.324921	-0.433502
1.093903	-1.322784	-0.445557
-0.131836	-1.295776	-0.452576
-1.571503	-1.344299	-0.455475
-2.231750	-1.332245	-0.433502
-1.720886	-1.330109	-0.443878
-0.597076	-1.349945	-0.447998
0.240479	-1.397705	-0.457611
0.464325	-1.397858	-0.446320
0.167084	-1.385040	-0.476685
-0.372620	-1.368103	-0.463257
-0.760956	-1.360016	-0.471954
-0.886230	-1.350861	-0.475464
-0.795441	-1.395874	-0.489655
-0.604248	-1.354675	-0.485992
-0.422516	-1.327209	-0.518951
-0.211029	-1.333008	-0.512085
-0.065155	-1.347961	-0.541077
0.077515	-1.367950	-0.548859
0.181427	-1.371155	-0.554962
0.225983	-1.385498	-0.570068
0.237122	-1.360931	-0.572968
0.135803	-1.379700	-0.589752
0.090332	-1.389923	-0.614777
0.070190	-1.412964	-0.602417
0.020599	-1.406250	-0.634308
-0.004578	-1.368103	-0.631866
-0.058441	-1.354523	-0.635376
-0.040741	-1.336670	-0.670929
-0.025024	-1.353760	-0.672760
-0.001221	-1.363373	-0.702057
0.021973	-1.335297	-0.704346
0.034943	-1.320953	-0.746918
0.088654	-1.318207	-0.734100
0.085602	-1.289673	-0.743103
0.090942	-1.305695	-0.764313
0.056000	-1.344757	-0.788727
0.083313	-1.312561	-0.813751
0.104218	-1.275330	-0.803986
0.091095	-1.241455	-0.803680
0.074615	-1.223755	-0.838013
0.040741	-1.236115	-0.839539
0.040894	-1.212616	-0.853271
0.008240	-1.171112	-0.868073
-0.031128	-1.152802	-0.879974
-0.072479	-1.150665	-0.895386
-0.092621	-1.164246	-0.895691
-0.071106	-1.197357	-0.905914
-0.118866	-1.169739	-0.914459
-0.147552	-1.108856	-0.929260
-0.166626	-1.128540	-0.933380
-0.159149	-1.127777	-0.927277
-0.153503	-1.150665	-0.934448
-0.197601	-1.148834	-0.946198
-0.227509	-1.157684	-0.967407
-0.267792	-1.113892	-0.970917
-0.253448	-1.119080	-0.986176
-0.238647	-1.127014	-0.994263
-0.173187	-1.110382	-0.990601
-0.084229	-1.056366	-0.991364
-0.087280	-0.998230	-1.003265
-0.068207	-1.000824	-0.994568
-0.101318	-1.017761	-0.993195
-0.112762	-1.030731	-0.984802
-0.175171	-1.015015	-0.993042
-0.170288	-0.994720	-0.980225
-0.161133	-0.991058	-0.991058
-0.188751	-0.975647	-0.995178
-0.166779	-0.984802	-0.985718
-0.205231	-0.959473	-1.002045
-0.189972	-0.952301	-0.993347
-0.126190	-0.953064	-0.988312
-0.097656	-0.929871	-0.984192
-0.050812	-0.960541	-0.998840
-0.065308	-0.977325	-0.991669
-0.069427	-0.954437	-0.997009
-0.101318	-0.959473	-0.997467
-0.109100	-0.961609	-0.999908
-0.131531	-0.955658	-0.996399
-0.136261	-0.996857	-0.984497
-0.093384	-1.045380	-0.964966
-0.100250	-1.056824	-0.966187
-0.065155	-1.069336	-0.961151
0.010681	-1.081848	-0.939941
0.036469	-1.132507	-0.944824
0.057526	-1.168213	-0.928650
0.021057	-1.218567	-0.901031
0.016785	-1.230927	-0.922852
-0.019836	-1.210022	-0.907593
-0.010071	-1.252289	-0.897522
-0.037689	-1.324768	-0.893555
-0.055695	-1.391449	-0.888977
-0.060120	-1.404724	-0.887756
-0.052795	-1.431122	-0.871124
-0.011444	-1.413116	-0.872803
-0.038300	-1.414795	-0.864563
-0.014343	-1.440430	-0.850677
-0.041962	-1.459198	-0.854034
-0.037994	-1.436920	-0.819092
-0.023804	-1.436005	-0.839539
-0.038757	-1.475983	-0.837555
-0.034180	-1.493530	-0.842285
-0.060577	-1.487427	-0.815582
-0.074921	-1.459961	-0.814209
-0.098419	-1.478882	-0.807343
-0.093231	-1.416168	-0.806427
-0.078583	-1.464691	-0.784149
-0.105591	-1.490326	-0.818024
-0.102844	-1.472015	-0.802765
-0.103302	-1.445312	-0.778656
-0.124817	-1.442261	-0.764618
-0.131683	-1.445618	-0.765991
-0.168304	-1.461334	-0.761414
-0.171814	-1.504517	-0.780182
-0.256500	-1.519470	-0.780945
-0.290070	-1.488953	-0.760956
-0.319672	-1.513519	-0.770416
-0.292664	-1.529694	-0.770874
-0.247192	-1.535492	-0.782166
-0.229797	-1.557159	-0.766754
-0.164795	-1.556549	-0.768280
-0.122223	-1.569519	-0.752563
-0.060120	-1.567993	-0.742493
-0.033417	-1.563110	-0.775452
-0.030365	-1.571808	-0.749817
-0.009003	-1.546021	-0.747070
0.015869	-1.542358	-0.753632
0.015259	-1.539154	-0.751495
-0.043945	-1.513062	-0.763855
-0.035095	-1.509247	-0.742950
-0.021362	-1.515808	-0.735474
-0.038147	-1.529541	-0.737000
-0.039978	-1.504669	-0.725708
-0.057831	-1.539612	-0.751801
-0.018616	-1.561279	-0.715637
-0.047607	-1.551056	-0.720520
-0.053558	-1.563110	-0.726318
-0.060883	-1.589508	-0.722198
-0.085144	-1.548004	-0.687103
-0.126648	-1.563110	-0.704041
-0.204926	-1.591797	-0.703735
-0.242157	-1.560822	-0.709381
-0.258789	-1.507568	-0.680389
-0.230255	-1.450195	-0.666656
-0.211334	-1.330872	-0.680695
-0.186310	-1.164856	-0.644379
-0.082092	-0.967255	-0.651550
-0.039520	-0.852814	-0.658112
0.065002	-0.692444	-0.658417
0.097504	-0.647736	-0.652771
0.114441	-0.737152	-0.657501
0.170746	-0.816040	-0.657654
0.204773	-0.802307	-0.647430
0.182343	-0.672607	-0.636902
0.105591	-0.522308	-0.649414
0.076447	-0.367584	-0.628815
0.032806	-0.319214	-0.616913
0.005341	-0.325775	-0.602112
-0.033417	-0.349579	-0.605316
-0.115509	-0.302734	-0.596619
-0.172882	-0.097504	-0.588684
-0.277100	0.130615	-0.585785
-0.344696	0.189056	-0.570374
-0.391083	0.195312	-0.579834
-0.413055	-0.132904	-0.563660
-0.385284	-0.604858	-0.569611
-0.312500	-1.499634	-0.555725
-0.233765	-2.519684	-0.570068
-0.171356	-2.701111	-0.545959
-0.059357	-2.708893	-0.536499
0.013580	-2.697754	-0.543823
0.029907	-2.691803	-0.525513
0.021667	-2.692413	-0.525665
-0.002289	-2.696533	-0.510559
0.006561	-2.696533	-0.510254
0.031433	-2.702484	-0.490875
-0.016632	-2.581482	-0.496826
-0.036011	-2.442627	-0.476837
-0.054321	-2.333069	-0.482025
-0.041199	-2.294617	-0.448456
-0.055389	-2.318573	-0.448914
-0.075836	-2.359619	-0.437469
-0.105896	-2.465363	-0.426331
-0.147552	-2.673492	-0.413513
-0.138397	-2.702179	-0.414429
-0.125427	-2.691956	-0.383453
-0.079498	-2.690582	-0.375671
-0.076904	-2.700500	-0.391541
0.003204	-2.695160	-0.363007
0.048370	-2.694855	-0.352783
0.115662	-2.697449	-0.349731
0.198669	-2.693329	-0.333405
0.222473	-2.698059	-0.318909
0.257263	-2.698975	-0.327148
0.261230	-2.694550	-0.316620
0.234985	-2.700653	-0.314331
0.066528	-2.691650	-0.304260
-0.271759	-2.687378	-0.310669
-0.502930	-2.698975	-0.316925
-0.777283	-2.636566	-0.301208
-1.175537	-2.584381	-0.303497
-1.286316	-2.511139	-0.309143
-0.936432	-2.477264	-0.330811
-0.470276	-2.445068	-0.314636
-0.063171	-2.359161	-0.299225
0.218048	-2.245636	-0.304260
0.196228	-2.170105	-0.296783
0.002289	-2.090759	-0.316925
-0.224609	-2.007294	-0.303802
-0.325317	-1.925964	-0.297546
-0.190277	-1.835632	-0.298462
0.140076	-1.761780	-0.306549
0.494537	-1.670990	-0.295868
0.617981	-1.565094	-0.269318
0.609894	-1.434937	-0.263824
0.480194	-1.320038	-0.270996
0.329895	-1.222839	-0.269318
0.168762	-1.185760	-0.243378
0.002136	-1.176605	-0.234070
-0.141144	-1.152954	-0.223846
-0.382690	-1.178284	-0.218201
-0.581665	-1.144867	-0.181427
-0.792084	-1.135254	-0.193481
-0.878906	-1.149750	-0.195770
-0.767059	-1.163483	-0.189056
-0.570068	-1.165924	-0.186157
-0.351105	-1.146393	-0.178680
-0.177002	-1.107483	-0.175018
0.070343	-1.111755	-0.167236
0.211029	-1.122894	-0.160065
0.250397	-1.150360	-0.152740
0.300751	-1.127319	-0.171967
0.315704	-1.101532	-0.167084
0.327148	-1.068420	-0.146942
0.277863	-1.081696	-0.144043
0.358887	-1.095276	-0.145264
0.395966	-1.106262	-0.142212
0.368805	-1.108704	-0.124969
0.426025	-1.062927	-0.104218
0.360718	-1.087494	-0.105133
0.286560	-1.084137	-0.109100
0.167084	-1.075897	-0.105896
