-0.037384	-0.414886	-0.175629
-0.092163	-0.158691	-0.942688
-0.439453	0.333405	-1.357574
-0.138245	-0.228729	-0.743713
-0.002594	-0.398254	0.756989
0.124207	0.269318	0.190277
-0.462189	0.111847	0.613403
-0.148163	0.261078	-0.170288
-0.815735	-0.852203	-0.334930
-0.046692	-0.779877	0.140686
-0.204620	-1.089325	0.191956
-1.030426	-0.615234	0.233917
-0.467072	-1.628113	0.222473
-0.388184	-0.305176	0.303192
-0.024261	-1.006165	-0.099030
-0.464325	-0.662994	-0.223236
-0.528412	-0.144348	0.459595
0.163879	-0.320435	-0.564270
-0.801239	-0.851135	-0.066223
-1.729584	0.120087	-0.627136
-0.193329	0.261078	0.255127
-1.029968	-0.337372	-0.058899
-1.217194	-0.157013	0.240936
-0.360413	-0.147858	0.043030
-1.676025	-1.185608	-0.256500
-0.491943	-0.734406	-0.509491
-0.143585	-0.334930	-0.744019
0.547791	-0.802765	-0.123901
-0.583954	0.151672	-0.158234
-0.889435	-0.684357	0.200348
0.592957	0.174103	-0.244141
0.163574	0.208893	-0.037079
-0.247192	-0.921936	-0.734406
-0.316925	-0.025024	-0.146790
-0.223083	0.038147	0.434570
0.310059	0.240784	-0.408020
0.095062	-1.736450	-0.132904
0.028381	0.828857	-0.615387
-0.213013	-0.153961	-0.273285
0.241089	-0.061798	-0.131989
-0.157318	-0.520325	0.448761
0.239410	-0.384979	0.058136
0.043182	0.272675	-0.951996
0.041656	-0.234528	-0.190430
-0.056000	0.952606	0.265808
0.056305	-0.100098	-0.040741
-0.424957	0.323639	-0.359497
0.479431	-1.063385	0.214996
-0.211182	-0.533142	-0.558929
-0.339050	0.013275	-0.038910
-1.128845	0.564575	-0.248260
-0.095825	-0.070648	-0.496368
-0.222321	-0.364838	-1.041107
0.170898	-0.314178	-0.818634
-0.336304	0.588837	-0.958252
0.031586	-0.303955	0.183258
0.270996	-0.384979	-1.164093
-0.199738	0.599976	-0.531769
-0.263672	-0.253906	0.062103
-0.587921	0.677032	-0.180969
0.262909	-0.784149	-0.769653
0.117645	-0.037079	-0.616302
0.182953	0.216675	-0.007019
-0.324554	0.145416	0.233612
-0.876007	-0.085297	0.218506
0.061035	-0.045319	-0.093689
-0.127106	-0.137329	-0.155334
-0.060425	-0.054626	-0.587006
-0.062714	0.160065	-0.575104
-0.614166	-0.827026	-0.439301
0.015259	0.268402	0.128937
-0.244904	0.294800	0.193634
-0.146790	-0.040131	-0.368195
-0.812988	0.908508	-0.130615
0.095520	-0.906219	-0.068665
0.326233	-0.766144	-0.839081
-0.537109	0.061340	-0.373688
-0.818481	-0.199432	-0.863190
0.619507	-0.129089	0.316010
-0.336304	-0.683899	-0.270386
-0.072632	-0.491180	0.205231
-1.018524	-0.355835	0.081482
0.634766	-0.315399	-0.158844
-0.237427	-0.276489	0.687561
-0.399780	-0.607147	-0.381622
-0.308838	0.448914	0.239410
-0.285797	0.175018	-0.583649
-0.848846	0.282440	-0.063324
-0.247040	-1.205139	0.039673
-0.792389	0.010376	-0.502319
-0.563507	-0.174866	-0.066376
-0.502930	-0.315704	-0.508118
-0.003052	-0.175629	0.237427
-0.174103	-0.104218	0.004272
-0.224762	-0.634308	-0.359039
-0.305328	-0.448456	-0.060425
-0.245209	-0.625763	-0.773468
0.196381	-0.119171	0.547333
0.190430	-0.216370	0.073090
-0.481110	-0.643311	0.061188
-0.438538	-0.185242	0.079346
-1.415405	-0.138397	-0.197449
-0.639038	0.814667	0.298309
0.671539	-0.180664	-0.581818
-0.063934	0.013580	0.906525
-1.184235	0.567017	0.626526
0.168762	0.382538	0.086060
-0.430298	0.094757	0.252838
-0.402527	-0.311737	0.041351
-0.811157	0.066223	-1.648254
-0.865326	-0.276794	0.249023
-0.038147	0.002289	0.037689
-0.254669	-0.336456	0.221252
-0.024109	-1.034851	-0.284119
-0.206451	-0.582123	-0.253601
-0.283508	0.433960	0.093231
-0.000610	-0.618439	0.221863
0.136261	-0.522919	-0.301361
-0.827332	0.310059	0.416870
-0.662079	-0.186310	-0.384979
-0.005646	-0.732422	0.039673
-0.122833	-0.164948	0.078278
0.205078	-0.270538	0.525208
0.164948	0.036469	-0.756531
0.082245	-0.224152	0.262604
-0.347900	-0.276642	-0.391541
-0.285339	-0.385437	0.174255
-0.223999	-0.041199	-0.428162
-0.470581	-0.644989	0.042877
-0.392761	-0.508423	-0.771790
-0.787506	-0.060883	0.783997
-0.246124	0.485687	-0.844116
0.292816	-0.075073	-0.243073
-0.474243	0.296631	0.427551
-0.309448	0.170898	0.225220
-0.208130	-0.629730	0.523987
-0.323792	-0.236969	-1.011963
0.245514	0.209961	0.208893
-0.446320	-0.744324	-0.721741
-0.113373	-0.222321	0.401917
-0.267029	-0.310059	-0.435028
0.256348	-0.593567	-0.518494
-1.345978	-0.658417	0.429993
-0.852814	-0.918121	0.327301
-0.474091	0.187836	-0.656891
-0.406036	-0.355682	0.071411
-0.160828	-0.653687	0.078735
0.541992	-1.093292	0.204010
-0.729370	-0.907135	0.033722
-0.413818	-0.550385	0.105133
-0.791473	-1.982117	-0.180664
-1.645508	-0.929718	-0.422668
-0.803375	0.167847	0.949554
-0.312958	-0.134430	-1.195221
-0.251617	-0.849915	-0.160828
-0.577087	-0.717468	0.130615
-0.548248	-0.215302	-0.289154
-0.026398	-0.142059	0.009003
-0.130310	0.217133	-0.345612
-0.634766	0.426636	0.334320
-0.369568	-0.091400	-0.440979
0.605621	-0.366669	0.341644
-0.198212	0.414429	-0.415497
-0.414581	-0.282898	-0.014343
-0.683746	0.135345	0.231323
-0.548401	0.518188	-0.023346
0.113983	-0.310211	-0.211945
-0.159912	-0.968628	-0.402374
-0.196381	-1.270905	0.010834
-0.025482	-0.702209	-0.124054
-0.110321	0.044861	0.169067
-0.064545	0.242004	0.372620
0.159760	0.401306	-0.579071
-0.458984	-0.418854	0.181580
0.661621	-0.188904	0.133057
-0.885925	-0.719452	-0.185089
0.002136	0.115509	-0.173492
-0.236053	0.047760	-0.739746
-0.305023	0.297546	-1.241150
-0.538788	0.784760	-0.198059
-1.306610	-0.814056	-0.090179
-0.787811	-0.295868	0.366211
-0.892487	-0.340729	0.225067
0.499573	-0.858765	-1.151276
0.369415	-0.221710	0.117340
-0.175018	-1.683502	0.580292
0.187988	-0.059357	-0.460663
0.104828	-0.416718	-0.146484
0.358124	0.046234	-0.366211
0.197601	-0.080719	-0.463409
-0.276947	-0.041046	-0.713959
-0.358429	-0.128632	0.407562
-0.732269	-0.186310	-0.638885
-0.481110	0.221405	0.638733
-0.206451	0.231171	0.413818
-1.041260	-0.075226	-0.482635
-0.424805	0.237579	-0.676117
-0.608826	0.092468	-0.615997
0.160065	0.106354	-0.425873
-0.570831	-0.062408	0.203857
0.072784	0.530853	0.376434
-0.467682	0.605621	-1.078949
-0.343628	0.279083	-0.299683
-0.270844	-0.616608	-0.073547
-0.396118	-1.119690	0.369568
-0.428467	-0.334473	-0.510864
0.157928	0.026703	0.164490
-0.093079	-0.022736	-0.648956
-0.016327	-0.750122	0.257568
-0.145721	0.046997	-0.004272
-0.481415	-0.478210	-0.085907
0.090179	0.444489	0.080719
-1.230621	0.201263	0.052490
-0.065002	0.108643	0.126038
-0.500946	-0.079803	-0.000916
-0.294800	-0.131073	-0.278473
-0.261383	-0.691223	-0.080414
0.147705	-1.298218	-0.284729
-0.143433	-0.273743	-0.386963
-0.607758	-0.356903	-0.720673
-0.381470	0.411682	-1.610565
-0.734711	0.019531	0.299072
-0.554199	-0.935364	-0.387726
-0.166473	0.471649	-0.434570
0.387878	-0.722656	-1.409760
-0.078125	-0.179443	0.433655
-0.640869	-0.040436	-0.066833
-1.153717	-0.114136	0.317993
0.127411	-0.456848	-0.735016
-0.261230	-0.697021	-0.209351
-1.011200	-0.497742	-0.786896
0.547028	-0.130615	-0.270691
-0.480347	-0.042725	-0.318146
-0.442505	-0.339508	-0.423889
0.027466	0.418549	-0.336761
-0.406952	-0.186005	-1.547852
-0.387573	-0.065765	0.387573
-0.342102	-0.856476	0.059662
-0.003357	-0.338440	-1.243591
-0.667267	-0.854797	-0.586853
-0.286102	0.000763	-0.207672
-0.341949	-0.694122	-0.122681
-0.313873	-0.271454	-0.037384
-0.383148	0.767670	0.087891
-0.004272	-0.561066	-0.384979
-0.347443	-0.347443	-0.935516
0.382233	-0.768738	0.011902
-0.952759	-0.091705	-0.245514
-0.146637	0.030823	-0.596008
-0.661163	0.233612	0.066528
0.087433	-0.246735	-0.256348
-0.485840	-0.395508	-0.788727
0.022125	-0.432434	-0.835419
-0.267639	-0.413666	-1.449890
0.007935	0.497284	-0.889587
-0.307007	-0.045776	-0.212097
-0.267334	-0.188599	-0.381927
-0.489349	-0.114136	-0.250702
-0.062866	-0.456696	0.239716
-0.107727	0.692596	0.424194
0.218964	-0.491943	-0.385132
-1.564178	-0.267639	-0.469208
0.283661	0.020599	-0.062714
-0.570068	-0.827942	0.321503
-0.227509	0.073242	0.401154
0.136414	-0.495911	-0.540619
0.055542	-0.351410	-0.031586
-0.095520	-0.737762	0.378265
0.025024	0.032806	-0.364532
-0.092468	0.137177	-0.230103
-0.543976	0.172729	-0.926514
-0.397491	-0.420837	-0.619202
-0.122223	-0.056915	0.171661
-0.210571	0.363312	0.449066
-0.400085	-0.531464	-0.242920
-1.043091	0.503998	-0.427399
-0.840912	-0.306854	0.434418
-1.134033	-0.697174	-0.181732
0.001068	0.065155	-0.142517
0.890198	-0.881042	0.303040
-0.781250	-0.039368	-0.776062
0.203857	0.131073	0.224152
-0.300903	-0.274658	-0.540619
-0.401917	-0.502167	0.302734
-0.245056	-0.323029	-0.257111
-0.189209	-0.622406	-0.274506
-0.609741	-0.880280	-0.031891
0.536194	-1.079254	-0.107269
0.035858	-0.351410	-0.088654
-0.180054	0.105743	0.049896
-0.204315	-0.017090	-0.333862
-0.147095	-1.063232	-0.195160
-0.135956	-0.511780	-0.120239
-1.115875	-0.260010	-0.630646
-0.824432	-0.163879	-1.256561
0.086975	-0.150909	0.108643
-0.721741	0.499268	-1.409607
-0.904083	-0.312500	-0.178375
-0.640717	-0.463867	0.017395
-0.122223	-0.189667	-0.564728
0.396881	-0.115509	0.259857
-0.191498	0.287170	0.356293
-0.431976	-0.686188	-0.381775
-0.360260	-0.662231	-0.113373
-0.001526	-1.665955	-0.459747
-0.110626	-0.884552	0.428009
-0.691071	-0.578918	-0.064392
-0.324249	0.381470	-0.078583
-0.178986	-0.220032	-0.129700
-0.149994	-0.557098	-0.427094
0.452728	-0.903778	-0.059967
0.020142	-0.322418	-0.128326
-1.381989	-0.589905	0.220490
0.272675	-0.488434	0.033417
-0.785675	-0.328217	0.042572
-0.158997	-0.295410	-0.456085
-0.226440	0.526733	-0.203705
-0.081177	-0.562286	-0.015411
0.718994	-0.066223	0.117493
-0.555420	-0.333405	0.116272
0.062714	0.127411	-0.291595
-0.790100	-0.807953	0.312653
0.303040	-0.056610	-1.034088
0.158691	-0.539703	-0.401154
-0.207520	-0.388794	-0.628510
-0.883484	-0.688324	-1.185608
0.500641	0.091400	0.077362
-0.049744	-0.227203	-0.499115
-0.017700	-0.890045	0.453949
-0.531769	-0.847321	0.071716
-0.804749	-0.152283	-0.428619
-0.197754	-0.671539	-0.335846
0.438843	-0.397949	-0.117950
-0.816345	-1.461639	0.341034
0.144501	-0.839691	-0.411835
-0.328827	-0.751190	-0.325012
-0.493469	-1.097870	0.513916
-0.028381	-0.817108	-0.359802
-0.694275	-0.581512	-0.055237
-0.238342	-0.107727	-0.322876
-0.063934	0.307770	-0.022125
-0.038757	-0.403137	-0.201569
-0.524597	-0.859070	0.195465
-1.158142	-0.520477	0.904541
0.880127	-0.319366	0.104675
0.342560	-1.501923	-0.288239
-0.482788	-0.342102	-0.570831
-0.521698	-0.202789	-0.032501
-0.455322	-1.330261	-0.082245
-0.334167	-0.991821	-0.648804
-0.544281	0.005646	0.075226
-0.123596	0.500336	-0.759888
-0.271149	-0.433807	-0.566864
-0.277863	-1.112671	0.350952
-0.392303	-0.705414	-0.618896
-0.326385	-0.655975	-0.436401
0.023804	-0.312347	0.009308
0.085907	-1.172333	-0.594025
-0.697327	-0.702515	0.213928
-1.248322	-0.515289	0.115356
-0.954590	-0.647583	-0.073242
-0.403748	-0.596466	-0.172272
0.044556	-0.248413	-0.295258
-0.361328	-0.424652	0.196228
-0.431671	-0.400696	-0.237732
0.045624	-0.573883	-0.218048
-0.393524	-0.110626	-0.610962
-0.735321	0.507355	-0.553894
-0.308838	0.155334	-0.401764
-0.455475	0.187683	0.537415
-0.148621	-0.081024	-1.938782
0.027771	0.186615	0.458069
-0.276947	-0.024719	-0.380707
-0.393982	0.046539	0.023346
-0.012817	-0.998077	-0.497894
-0.795288	-0.124969	-0.290222
-0.218964	-1.928711	-0.455170
-0.509491	-0.043182	-0.232849
-0.096741	-0.774078	-0.068512
-0.283661	-0.619659	-0.401764
-0.459900	0.305634	0.662994
-0.346222	-0.647278	-0.115356
0.019836	-0.614777	0.005951
-0.048676	-0.049744	-0.232697
0.053558	-0.221558	0.173187
0.364227	0.177307	-0.321045
0.107117	-0.127258	0.049896
-0.328522	-0.990906	-0.415955
-0.729065	0.272064	-0.422668
-0.615845	0.221100	0.127411
-0.380554	-0.317230	-0.493774
-0.632172	0.393829	0.692596
-0.806274	-0.738373	-0.304108
-0.540009	-1.661072	0.547638
-0.122681	-0.181122	-0.608521
-0.186462	-0.860443	-0.546417
0.248871	-0.260620	0.853424
-0.083008	-0.235901	0.554504
-0.148468	-0.654297	0.142212
0.632324	0.043182	-0.392151
-0.262604	-1.112213	-0.234070
-0.290680	0.552826	0.018158
-0.246429	-0.140076	-0.122375
0.278778	-0.593719	-1.125336
0.260162	-0.263977	0.280914
-0.515900	-0.632172	-0.112915
-0.606384	-1.375732	0.145721
-0.830841	-0.549622	0.179901
-0.339508	-0.106812	0.121002
-1.276703	-0.667267	-0.649872
-0.714722	-0.165863	-0.000763
-0.197449	0.279999	0.357513
-0.261688	0.145264	0.391846
-0.149231	0.310669	-0.287170
-0.057068	-0.313873	0.545197
-0.182495	-0.322266	-0.244293
-1.129150	-0.229645	-0.338440
-0.333710	-0.385132	-0.306854
-0.337219	-0.314331	-0.368652
-0.351410	0.151825	0.091553
-0.343475	-0.410614	0.545197
-0.341797	-0.258942	-0.964813
-0.384521	-0.469055	0.184631
0.081482	-0.367279	-0.562286
-0.319061	-0.129089	-0.780792
-0.364227	-0.311890	0.663147
-0.932770	0.003815	0.291290
-0.496521	-0.209808	-0.049286
0.254974	0.357208	0.122986
-0.107727	0.002289	0.166473
-0.197906	-1.235046	0.945740
-0.298462	-0.081940	0.866699
-0.329437	0.230865	0.420532
-0.335846	0.292664	0.052338
0.597382	0.502777	-0.292816
0.467834	0.538330	-0.555573
0.158844	0.470123	-0.821686
-0.035095	-0.759277	-1.009216
0.123291	0.562134	-1.205902
0.020752	-0.407410	-1.342163
-0.093536	-0.368652	-1.502228
0.260925	-0.506287	-1.644287
0.753174	0.065308	-1.737671
0.955048	0.698547	-1.908264
0.970001	0.845490	-1.991730
0.786896	0.632935	-1.410370
0.899811	0.168762	-0.337677
0.566711	-0.275574	-0.451965
0.262604	-0.610199	0.903168
0.507507	-0.760498	0.651855
1.401062	-0.822601	0.565948
-1.466827	-0.908966	0.455170
-0.737152	-0.928040	0.279694
-1.037292	-1.070251	0.186310
0.605774	-1.174622	0.088501
0.986938	-1.253357	-0.029449
-0.213623	-1.417999	-0.115967
-1.674347	-1.500702	-0.211182
0.207367	-1.635284	-0.335541
-0.336456	-1.724396	-0.449982
-0.747986	-1.856232	-0.530243
-0.913849	-1.929779	-0.621338
-1.121674	-2.035370	-0.730286
-1.672363	-1.328888	-0.802917
0.207825	-0.258484	-0.925140
-0.265198	-0.419617	-0.238953
-0.679626	-0.233612	0.467377
-1.002197	0.842133	0.416412
-0.999451	0.704651	0.324249
-1.798553	0.552673	0.191650
0.535126	0.443573	0.157166
-0.127563	0.376892	0.072937
0.113983	0.261688	0.297394
0.256195	0.165253	0.875397
0.074768	0.106812	0.745697
-0.212097	-0.023651	0.744934
-0.484314	-0.047913	0.556793
-0.444183	-0.213318	0.646820
-0.254822	-0.261078	0.515747
-0.106354	-0.328522	0.533295
-0.020447	-0.395813	0.802765
0.004425	-0.494537	0.394135
-0.026550	-0.565948	1.131134
-0.177155	-0.655670	1.041718
-0.266724	-0.736847	0.505219
-0.331573	-0.805664	-0.294495
-0.424500	-0.878296	0.616760
-0.404816	-0.879059	0.804291
-0.420837	-0.986023	0.917816
-0.352783	0.737152	0.239258
-0.361023	0.469971	0.057373
-0.422211	0.380859	0.148010
-0.569763	0.378113	0.226593
-0.739136	0.188446	0.284271
-0.865479	0.177155	0.331268
0.580139	0.079956	0.408936
0.415497	0.106812	0.481720
0.338135	-0.011597	0.501099
0.291748	-0.047455	0.578461
0.102539	0.308075	0.608673
-0.032501	-0.208435	0.628510
0.730133	-0.060272	0.373840
0.654297	0.617218	0.368805
0.621185	0.465088	0.445099
0.576477	0.981293	0.227356
1.205292	1.194458	-0.782623
0.864258	1.118622	-0.739288
0.463257	1.204834	-0.712891
0.466156	0.877991	-0.695190
0.965576	1.485596	-0.710144
1.059265	1.818237	-0.699463
1.163788	1.704254	-0.645905
1.874084	1.834564	-0.684814
1.740112	2.656250	-0.673065
2.576294	2.646942	-0.682678
2.694550	2.637787	-0.684052
2.678833	2.649384	-0.691376
2.694550	2.645264	-0.719299
2.687225	2.666016	-0.740204
2.689667	2.636719	-0.759430
2.686310	2.634888	-0.797119
2.684479	2.638702	-0.800629
2.693634	2.643585	-0.808868
2.687225	2.638550	-0.882263
2.689362	2.658691	-0.911560
2.690887	2.648468	-0.277252
2.687988	2.637939	0.596619
2.693176	2.650299	0.554810
2.689209	2.639008	0.553131
2.697296	2.655334	0.458221
2.671509	2.635193	0.414734
2.691650	2.657623	0.344849
2.681122	2.662201	0.325928
2.689819	2.641449	0.256195
2.679749	2.649536	0.297699
2.681427	2.651215	0.131378
2.687073	2.653351	0.123291
2.680817	2.643127	0.072632
2.683411	2.646332	-0.031891
2.687836	2.648315	-0.105133
2.679138	2.634888	-0.023956
2.584686	2.647400	-0.059814
2.419128	2.656708	0.635986
2.263184	2.664337	0.659790
2.188416	2.648926	0.787354
1.961060	2.649384	0.998077
1.848450	2.643890	1.184692
1.917725	2.652435	1.309357
2.099457	2.649078	1.305084
2.174072	2.632141	0.326080
2.202759	2.603912	1.555328
2.052460	2.593231	0.723724
1.912689	2.568512	0.780029
1.899261	2.602997	0.827942
1.768188	2.475891	2.726746
1.723633	2.473602	2.724152
1.660614	2.439575	2.701416
1.688690	2.420044	2.717896
1.755524	2.425995	2.716827
1.772461	2.413635	2.720642
1.666412	2.367706	2.702789
1.653442	2.341614	2.701111
1.781921	2.302094	2.733612
1.855011	2.253876	2.711334
1.815338	2.176666	2.698212
1.668701	2.215271	2.692413
1.569672	2.230988	2.696075
1.524200	2.120361	2.710724
1.414490	2.113037	2.716980
1.326141	2.046051	2.706757
1.319122	2.014771	2.726288
1.276703	1.948090	2.703247
1.213226	1.906738	2.724915
1.253662	1.943817	2.704163
1.201935	1.914520	2.709961
1.266937	1.825714	2.718964
1.232910	1.779785	2.710419
1.198730	1.738129	2.707062
1.154785	1.712952	2.599792
1.069641	1.601715	2.540741
1.080780	1.600800	2.481842
1.045380	1.651154	2.508240
0.842896	1.531677	2.368927
0.726166	1.535797	2.284241
0.721436	1.388702	2.235870
0.665894	1.316376	2.142792
0.719757	1.255188	2.067871
0.638733	1.357422	2.057953
0.688019	1.359863	2.040710
0.581055	1.147308	1.934357
0.626068	1.141968	1.887970
0.656433	1.057281	1.807251
0.728607	1.028595	1.753235
0.734711	0.963135	1.658783
0.681000	0.887604	1.680908
0.657043	0.845642	1.608887
0.733185	0.904236	1.689758
0.635223	0.716705	1.579437
0.564575	0.688782	1.536102
0.409546	0.653229	1.437836
0.377655	0.493469	1.431427
0.351562	0.442810	1.354065
0.375519	0.435181	1.351776
0.274658	0.402679	1.265564
0.254364	0.364990	1.318512
0.113678	0.289001	1.225128
0.086365	0.208130	1.196594
0.072479	0.167084	1.154785
0.124359	0.109100	1.102905
0.065155	0.090485	1.072845
0.064392	0.023193	0.990601
0.003815	-0.057831	0.975037
-0.000610	-0.044250	1.014404
-0.121765	-0.100555	0.927277
-0.119476	-0.179596	0.908051
-0.117340	-0.260010	0.872955
-0.137177	-0.283508	0.818787
-0.113220	-0.316467	0.752716
-0.109711	-0.356140	0.769958
-0.149689	-0.382690	0.744171
-0.120697	-0.358734	0.776062
-0.177612	-0.467682	0.662689
-0.185547	-0.505981	0.638733
-0.149536	-0.526581	0.627899
-0.122223	-0.616455	0.539703
-0.084991	-0.644379	0.551453
0.029449	-0.590363	0.616608
0.027771	-0.599670	0.570374
-0.107269	-0.767670	0.450134
-0.053253	-0.688171	0.570068
0.037994	-0.514221	0.696106
-0.011444	-0.537720	0.742035
-0.027313	-0.543518	0.728302
-0.018463	-0.588837	0.682831
0.025787	-0.601807	0.666199
0.075836	-0.637665	0.654449
0.053558	-0.621643	0.634308
0.090485	-0.648041	0.585327
0.083923	-0.661011	0.560455
0.072174	-0.759277	0.566101
0.040131	-0.692444	0.549774
0.012817	-0.603027	0.678406
-0.120697	-0.650330	0.642548
-0.210876	-0.708160	0.564575
-0.263519	-0.695496	0.577545
-0.295868	-0.721130	0.554504
-0.342255	-0.746155	0.552368
-0.343475	-0.683136	0.559845
-0.294952	-0.733032	0.530853
-0.269623	-0.743561	0.590820
-0.225677	-0.753632	0.560455
-0.163574	-0.800781	0.490570
-0.055847	-0.808105	0.507660
0.029144	-0.812683	0.526581
0.034637	-0.772552	0.500336
0.038910	-0.803070	0.473938
-0.008850	-0.833435	0.531769
-0.055695	-0.779114	0.466614
-0.074768	-0.835724	0.474091
-0.092468	-0.799866	0.450745
-0.122070	-0.842590	0.452576
-0.167084	-0.854492	0.462189
-0.189362	-0.832672	0.418854
-0.234833	-0.850830	0.406647
-0.266266	-0.827637	0.428162
-0.312347	-0.821075	0.392303
-0.332642	-0.849915	0.379333
-0.371552	-0.874634	0.369263
-0.374756	-0.831451	0.370026
-0.359344	-0.868683	0.354156
-0.361328	-0.878754	0.307007
-0.354156	-0.869904	0.338440
-0.357819	-0.848999	0.290833
-0.335541	-0.881042	0.247192
-0.310211	-0.846710	0.235596
-0.275574	-0.843048	0.201569
-0.231323	-0.882111	0.217133
-0.193634	-0.858307	0.153656
-0.169678	-0.889587	0.120239
-0.186462	-0.883484	0.089569
-0.245209	-0.858154	0.055542
-0.324097	-0.870361	0.010223
-0.372925	-0.871582	-0.009155
-0.500793	-0.873260	-0.049438
-0.690155	-0.880432	-0.061493
-0.685730	-0.889893	-0.079041
-0.534515	-0.885162	-0.112152
-0.254669	-0.882874	-0.149689
0.186157	-0.892944	-0.183411
0.607452	-0.854187	-0.200806
0.814209	-0.909119	-0.249329
1.015167	-0.919495	-0.292206
1.172791	-0.898285	-0.291748
1.280212	-0.935669	-0.371857
1.221771	-0.923309	-0.382996
0.955811	-0.938873	-0.399475
0.373383	-0.960541	-0.431519
-0.213623	-0.892334	-0.484009
-0.867004	-0.884857	-0.519562
-1.392059	-0.851440	-0.547638
-1.770325	-0.942078	-0.578156
-1.926727	-0.952148	-0.640106
-2.001343	-0.937500	-0.631104
-1.869354	-0.957336	-0.676270
-1.617737	-0.933685	-0.682526
-1.185455	-0.930939	-0.702362
-0.693817	-0.984802	-0.711670
-0.243683	-0.970306	-0.768280
0.168304	-0.951996	-0.766449
0.432587	-0.970917	-0.763550
0.609741	-0.962677	-0.796356
0.645294	-0.950775	-0.800476
0.618286	-0.913849	-0.798035
0.451050	-0.916748	-0.818634
0.279541	-0.922394	-0.842133
0.086365	-0.914154	-0.844269
-0.139923	-0.906830	-0.778503
-0.335999	-0.913696	-0.791321
-0.497437	-0.911713	-0.807495
-0.602264	-0.945740	-0.799103
-0.625916	-0.930786	-0.812836
-0.612946	-0.903015	-0.816345
-0.560303	-0.881500	-0.836182
-0.506744	-0.925140	-0.837555
-0.408478	-0.876160	-0.820312
-0.279388	-0.904541	-0.819244
-0.135956	-0.934448	-0.822906
0.023193	-0.895081	-0.850067
0.102692	-0.906525	-0.827179
0.196686	-0.886383	-0.854340
0.272217	-0.879059	-0.867767
0.301514	-0.903320	-0.855255
0.240173	-0.920868	-0.860443
0.155640	-0.910187	-0.853271
0.068207	-0.908661	-0.843506
-0.039978	-0.923462	-0.849304
-0.089111	-0.943146	-0.836945
-0.133972	-0.929718	-0.870209
-0.193634	-0.909271	-0.863953
-0.273132	-0.961914	-0.861359
-0.311127	-0.991058	-0.860901
-0.311432	-0.976105	-0.848541
-0.329285	-0.961456	-0.857544
-0.311584	-0.958405	-0.855408
-0.292969	-0.927277	-0.834961
-0.277557	-0.955048	-0.826263
-0.267944	-0.951538	-0.842590
-0.246277	-0.940094	-0.856171
-0.257111	-0.907288	-0.872040
-0.230255	-0.920410	-0.847321
-0.183258	-0.872040	-0.801086
-0.115662	-0.842285	-0.770569
-0.097046	-0.867920	-0.772247
-0.122681	-0.881042	-0.774536
-0.115509	-0.908661	-0.770569
-0.074463	-0.899963	-0.703125
-0.080566	-0.889130	-0.724335
-0.079803	-0.883026	-0.738220
-0.093231	-0.849609	-0.725403
-0.082092	-0.837250	-0.695648
-0.151672	-0.836334	-0.657196
-0.201569	-0.841980	-0.642090
-0.208893	-0.863190	-0.637970
-0.152893	-0.915985	-0.632935
-0.121765	-0.859680	-0.627289
-0.144196	-0.841980	-0.594788
-0.227051	-0.838623	-0.605927
-0.265656	-0.856781	-0.570221
-0.328522	-0.848541	-0.553741
-0.296021	-0.851593	-0.529327
-0.263367	-0.797882	-0.536194
-0.222321	-0.822296	-0.513153
-0.227661	-0.842896	-0.485382
-0.228424	-0.836487	-0.490875
-0.285034	-0.816650	-0.486755
-0.324860	-0.793457	-0.477448
-0.325317	-0.807343	-0.465088
-0.324097	-0.840454	-0.459137
-0.303192	-0.808868	-0.441589
-0.317535	-0.825806	-0.470734
-0.309906	-0.854034	-0.467072
-0.275269	-0.860596	-0.486908
-0.245056	-0.871582	-0.522614
-0.183411	-0.925903	-0.543365
-0.182343	-0.943756	-0.554962
-0.205994	-0.997925	-0.587616
-0.174255	-1.009064	-0.591736
-0.116882	-0.988312	-0.577545
0.003510	-1.003113	-0.583496
0.111694	-0.912476	-0.525970
0.187836	-0.890045	-0.493011
0.215454	-0.862274	-0.442200
0.150452	-0.830231	-0.465240
0.165558	-0.838776	-0.453033
0.058136	-0.838013	-0.472870
-0.012360	-0.843048	-0.478210
-0.015411	-0.826721	-0.505829
0.017548	-0.819702	-0.466766
0.015717	-0.833130	-0.480042
0.015411	-0.827484	-0.451050
-0.041809	-0.843811	-0.493164
-0.023804	-0.810699	-0.482330
0.010834	-0.804138	-0.506439
0.077820	-0.747070	-0.476379
0.096893	-0.755768	-0.492859
0.094299	-0.758514	-0.480042
0.040741	-0.798950	-0.487366
0.009155	-0.812683	-0.466461
-0.044708	-0.786896	-0.490265
-0.077057	-0.798340	-0.511780
-0.091705	-0.797882	-0.506592
-0.122223	-0.799713	-0.509491
-0.112915	-0.836182	-0.558777
-0.121918	-0.818481	-0.560150
-0.123444	-0.847321	-0.562897
-0.154114	-0.850067	-0.596008
-0.175171	-0.816956	-0.587769
-0.175476	-0.827332	-0.586243
-0.211945	-0.844116	-0.623474
-0.254669	-0.861969	-0.640717
-0.283203	-0.869751	-0.643311
-0.305176	-0.806274	-0.616302
-0.298157	-0.806274	-0.632019
-0.337372	-0.833740	-0.661926
-0.295563	-0.835876	-0.673523
-0.266113	-0.824432	-0.658569
-0.240021	-0.795135	-0.678864
-0.152435	-0.844727	-0.678711
-0.096436	-0.832672	-0.682220
-0.046997	-0.841827	-0.695648
-0.030670	-0.799713	-0.704193
-0.072174	-0.816650	-0.706635
-0.083771	-0.799561	-0.719147
-0.070190	-0.791626	-0.693054
0.014648	-0.837250	-0.680695
0.114441	-0.824585	-0.733337
0.156708	-0.809631	-0.723572
0.101166	-0.824280	-0.695343
-0.000763	-0.860748	-0.724030
-0.102234	-0.832214	-0.713959
-0.167542	-0.829620	-0.721893
-0.158234	-0.831451	-0.698090
-0.102539	-0.828247	-0.729675
-0.041962	-0.804901	-0.726929
-0.048523	-0.828705	-0.733948
0.010376	-0.863495	-0.763092
0.027771	-0.807648	-0.746155
0.097961	-0.811768	-0.717621
0.072021	-0.831757	-0.746613
-0.010986	-0.831757	-0.774231
-0.067596	-0.807343	-0.747833
-0.108948	-0.817261	-0.775299
-0.089264	-0.808411	-0.810089
-0.045013	-0.832214	-0.818634
0.010529	-0.843353	-0.781250
0.063019	-0.869751	-0.819092
0.077820	-0.879517	-0.819855
0.047760	-0.873260	-0.840149
0.018463	-0.835876	-0.853424
-0.045929	-0.876465	-0.865631
-0.096893	-0.855865	-0.874786
-0.161896	-0.807800	-0.868073
-0.149841	-0.811920	-0.872955
-0.178528	-0.821228	-0.928040
-0.154419	-0.785522	-0.913391
-0.175476	-0.828552	-0.964050
-0.103760	-0.812988	-0.958405
-0.083618	-0.837250	-0.982513
0.034943	-0.863800	-1.003723
0.102844	-0.861511	-0.974731
0.139313	-0.833435	-1.033173
0.083923	-0.873260	-1.037903
0.066376	-0.899811	-1.053925
0.025024	-0.848389	-1.051331
-0.024719	-0.877686	-1.084137
-0.067749	-0.906219	-1.129761
-0.080872	-0.824585	-1.111908
-0.102692	-0.862579	-1.076965
-0.136414	-0.852966	-1.130066
-0.188293	-0.840607	-1.158752
-0.180817	-0.864563	-1.172638
-0.177765	-0.877228	-1.167603
-0.138245	-0.883636	-1.168671
-0.190582	-0.905304	-1.186371
-0.188904	-0.878448	-1.218414
-0.154572	-0.850220	-1.190186
-0.155487	-0.873566	-1.227417
-0.114746	-0.855255	-1.288147
-0.103912	-0.881805	-1.286316
-0.047760	-0.838928	-1.250763
-0.102844	-0.867462	-1.299744
-0.088654	-0.911255	-1.287384
-0.098572	-0.879364	-1.293335
-0.138245	-0.888977	-1.296539
-0.168610	-0.897064	-1.348877
-0.218048	-0.859070	-1.343994
-0.205231	-0.837860	-1.372833
-0.160980	-0.847473	-1.355286
-0.126190	-0.872803	-1.397095
-0.076447	-0.832062	-1.413879
-0.022736	-0.867004	-1.375275
0.066071	-0.826111	-1.387634
0.079803	-0.828705	-1.386261
0.144958	-0.816956	-1.380920
0.182495	-0.864868	-1.433868
0.101166	-0.859680	-1.399384
0.077820	-0.864105	-1.460266
0.028381	-0.884705	-1.402740
0.008392	-0.934601	-1.491394
0.053253	-0.945740	-1.417847
0.020294	-0.924683	-1.493530
0.025024	-0.934906	-1.463470
0.012054	-0.891266	-1.522980
-0.044861	-0.886536	-1.506348
-0.121155	-0.837250	-1.514740
-0.205383	-0.851746	-1.548157
-0.225830	-0.862885	-1.531372
-0.223541	-0.867004	-1.509399
-0.224609	-0.876923	-1.584167
-0.216370	-0.905609	-1.565552
-0.202637	-0.900269	-1.549225
-0.150909	-0.892334	-1.603088
-0.180817	-0.879211	-1.608276
-0.177917	-0.887604	-1.603546
-0.175018	-0.913849	-1.629181
-0.094757	-0.886230	-1.624756
-0.043488	-0.880127	-1.659241
-0.047302	-0.930634	-1.651917
-0.034332	-0.906525	-1.634674
-0.010834	-0.902557	-1.676331
-0.050507	-0.917511	-1.649628
-0.069733	-0.947723	-1.706848
-0.093536	-0.975189	-1.728363
-0.105438	-0.938110	-1.703186
-0.099640	-0.946045	-1.711426
-0.054932	-0.951996	-1.722260
-0.027924	-0.936890	-1.755676
-0.016937	-0.959778	-1.726837
-0.007324	-0.935364	-1.739655
0.001831	-0.878143	-1.776276
-0.039368	-0.870361	-1.783600
-0.097809	-0.907898	-1.760559
-0.163727	-0.903625	-1.800537
-0.192871	-0.883942	-1.767731
-0.224762	-0.936890	-1.770630
-0.215912	-0.914612	-1.817322
-0.152435	-0.914612	-1.859589
-0.069122	-0.892792	-1.837311
-0.013580	-0.931549	-1.822357
0.057831	-0.903931	-1.831207
0.049286	-0.886230	-1.830902
0.059357	-0.877533	-1.845703
0.002441	-0.906830	-1.799622
-0.080261	-0.902557	-1.855164
-0.158386	-0.925293	-1.839294
-0.111084	-0.914001	-1.841278
-0.027618	-0.875702	-1.825256
-0.008087	-0.915833	-1.835175
-0.003815	-0.921173	-1.846771
-0.071259	-0.878448	-1.863708
-0.046997	-0.850372	-1.796875
-0.070190	-0.850677	-1.853180
-0.153046	-0.807343	-1.856384
-0.176239	-0.867920	-1.828156
-0.153809	-0.818329	-1.846771
-0.097351	-0.843506	-1.841888
-0.097504	-0.840454	-1.826019
-0.062714	-0.861816	-1.819458
-0.052490	-0.870667	-1.815643
-0.055237	-0.887299	-1.842346
-0.135498	-0.913239	-1.839142
-0.195923	-0.887146	-1.831207
-0.228882	-0.860138	-1.836853
-0.217133	-0.887909	-1.844482
-0.222321	-0.904236	-1.815186
-0.150757	-0.880585	-1.805573
-0.089569	-0.847015	-1.817169
-0.055084	-0.897522	-1.796417
-0.069275	-0.883636	-1.836700
-0.047150	-0.861969	-1.785431
-0.074463	-0.860138	-1.806793
-0.128479	-0.832977	-1.829224
-0.137787	-0.874023	-1.830902
-0.106354	-0.851898	-1.744995
-0.027466	-0.886688	-1.767578
0.041351	-0.943604	-1.795349
0.065460	-0.906372	-1.804352
0.036163	-0.924225	-1.790161
-0.011902	-0.962219	-1.797485
-0.011902	-0.932922	-1.769867
-0.061646	-0.912476	-1.746521
-0.066223	-0.914307	-1.756744
-0.018463	-0.906677	-1.795654
0.001068	-0.918274	-1.798248
0.054626	-0.916748	-1.776733
0.014954	-0.922241	-1.780701
-0.097809	-0.889282	-1.820679
-0.165100	-0.903168	-1.785126
-0.156250	-0.904694	-1.835175
-0.114594	-0.856476	-1.813660
-0.014191	-0.875854	-1.822357
0.071259	-0.850677	-1.819305
0.144501	-0.861359	-1.828308
0.202789	-0.869904	-1.810150
0.162201	-0.875702	-1.853333
0.062714	-0.912781	-1.871338
-0.056152	-0.861359	-1.857147
-0.103302	-0.860443	-1.855927
-0.233765	-0.870819	-1.884766
-0.401306	-0.888367	-1.878662
-0.465088	-0.858154	-1.889343
-0.465546	-0.907440	-1.900330
-0.382385	-0.830688	-1.893616
-0.342102	-0.821686	-1.896057
-0.235748	-0.841675	-1.909027
-0.081940	-0.821991	-1.945190
0.020599	-0.883331	-1.963043
0.056458	-0.883636	-1.957703
0.014801	-0.888062	-1.976166
-0.061035	-0.891724	-1.969910
-0.123291	-0.875397	-1.932068
-0.155182	-0.889282	-1.961212
-0.103455	-0.870514	-1.923676
-0.087738	-0.894012	-1.960297
-0.055847	-0.917816	-1.976471
0.003662	-0.922394	-1.991119
0.039368	-0.919495	-2.005615
0.033875	-0.892792	-1.976471
-0.045319	-0.870209	-1.954651
-0.134430	-0.874329	-1.991425
-0.204468	-0.851746	-1.980896
-0.251770	-0.884705	-1.977234
-0.251923	-0.881805	-1.993103
-0.194092	-0.848846	-2.000275
-0.104980	-0.858154	-2.008514
0.000916	-0.881042	-2.003021
0.087128	-0.882721	-1.988220
0.146637	-0.857086	-1.969910
0.169373	-0.812988	-1.995697
0.082245	-0.798950	-1.972351
-0.056458	-0.828094	-2.019806
-0.175781	-0.863342	-1.998749
-0.108185	-0.888367	-2.006836
-0.023193	-0.867310	-1.968079
-0.027924	-0.921021	-1.996613
-0.034180	-0.855560	-1.949921
-0.048981	-0.861053	-1.963501
-0.007782	-0.891266	-1.954346
0.083466	-0.914001	-1.951447
0.212708	-0.877533	-1.989441
0.256195	-0.882263	-1.930847
0.234070	-0.869293	-1.946716
0.137024	-0.865936	-1.968536
-0.067291	-0.876312	-1.931305
-0.247192	-0.897217	-1.936798
-0.316925	-0.874176	-1.943512
-0.246124	-0.822449	-1.924896
-0.186462	-0.837708	-1.918488
-0.243530	-0.850372	-1.908264
-0.246735	-0.851135	-1.868134
-0.174103	-0.890045	-1.885223
-0.149231	-0.906219	-1.880798
-0.204163	-0.917053	-1.878815
-0.196991	-0.874634	-1.894379
-0.199585	-0.847473	-1.883240
-0.157013	-0.920868	-1.896820
-0.145874	-0.899811	-1.856689
-0.122223	-0.877838	-1.860504
-0.088348	-0.859375	-1.811829
-0.084229	-0.862732	-1.836395
-0.104218	-0.869446	-1.830902
-0.085754	-0.901794	-1.828156
-0.065765	-0.844727	-1.813354
-0.079193	-0.850372	-1.786346
-0.118256	-0.830688	-1.739960
-0.134277	-0.854034	-1.780243
-0.176086	-0.821228	-1.754913
-0.208893	-0.821381	-1.771545
-0.240173	-0.770874	-1.738129
-0.164032	-0.801849	-1.752930
-0.160065	-0.772705	-1.724091
-0.169067	-0.741577	-1.684113
-0.101013	-0.782623	-1.687775
-0.031738	-0.774994	-1.719818
-0.004578	-0.758972	-1.684265
0.120392	-0.718384	-1.719666
0.194092	-0.711212	-1.668243
0.235901	-0.705719	-1.646118
0.218506	-0.688324	-1.680756
0.241394	-0.692902	-1.696320
0.178375	-0.628967	-1.657410
0.145264	-0.649567	-1.645203
0.118256	-0.710602	-1.611786
0.106049	-0.682526	-1.649017
-0.000916	-0.634766	-1.611481
-0.137329	-0.610657	-1.634369
-0.250702	-0.605316	-1.636963
-0.347900	-0.594940	-1.618195
-0.394287	-0.590057	-1.626434
-0.392609	-0.601654	-1.615143
-0.275116	-0.562744	-1.625977
-0.327148	-0.564117	-1.555939
-0.459595	-0.536957	-1.597900
-0.478516	-0.534515	-1.566620
-0.232544	-0.557709	-1.524811
-0.000458	-0.538788	-1.578217
0.090790	-0.542297	-1.586456
0.047760	-0.540466	-1.516418
0.030975	-0.569458	-1.515808
0.087891	-0.559082	-1.512299
0.152740	-0.559692	-1.483154
0.118256	-0.508270	-1.513519
0.000305	-0.508118	-1.495972
-0.122528	-0.536194	-1.486969
-0.144958	-0.513306	-1.426544
-0.083466	-0.525665	-1.443329
-0.017853	-0.486450	-1.424255
-0.038910	-0.492096	-1.426239
-0.006409	-0.563812	-1.388702
-0.016937	-0.570374	-1.399536
-0.065613	-0.623322	-1.340179
-0.090942	-0.616608	-1.371765
-0.144348	-0.619202	-1.358643
-0.128021	-0.650635	-1.347351
-0.109406	-0.608826	-1.281128
-0.140991	-0.577545	-1.285553
-0.176392	-0.594025	-1.253662
-0.240936	-0.554199	-1.221313
-0.294342	-0.590363	-1.227264
-0.249329	-0.567780	-1.235046
-0.223083	-0.577240	-1.169281
-0.165710	-0.609741	-1.213226
0.024414	-0.600739	-1.163177
0.185547	-0.580902	-1.138611
0.304718	-0.539703	-1.131134
0.269318	-0.558624	-1.125183
0.169830	-0.625916	-1.086578
0.027771	-0.608978	-1.081238
-0.119476	-0.635376	-1.033173
-0.309448	-0.571442	-0.983582
-0.427551	-0.610657	-1.005249
-0.508575	-0.630951	-0.982361
-0.560760	-0.640259	-0.965576
-0.541687	-0.661621	-0.960846
-0.386353	-0.702515	-0.944214
-0.261230	-0.681763	-0.937042
-0.119019	-0.716248	-0.894012
0.056305	-0.738220	-0.857086
0.215149	-0.702057	-0.876312
0.429535	-0.746613	-0.861816
0.483398	-0.738525	-0.841827
0.279694	-0.806885	-0.860138
-0.049286	-0.809326	-0.852356
-0.219574	-0.794373	-0.830383
-0.276031	-0.838318	-0.788116
-0.189667	-0.836945	-0.750427
-0.015106	-0.920563	-0.765076
0.103912	-0.944672	-0.760956
0.142365	-0.942841	-0.740356
0.090485	-0.940552	-0.725098
0.035858	-0.980835	-0.710144
0.037231	-0.968018	-0.695496
0.025787	-1.006470	-0.709534
-0.041046	-0.970459	-0.709076
-0.150757	-0.978546	-0.670319
-0.171967	-0.946198	-0.655365
-0.073395	-0.957031	-0.628815
0.052643	-0.986328	-0.607910
0.133820	-1.008148	-0.598602
0.190735	-1.054230	-0.577850
0.179901	-1.019592	-0.575714
0.092926	-1.045990	-0.529938
-0.064545	-1.029053	-0.522614
-0.155334	-1.016693	-0.515442
-0.188446	-1.022186	-0.465240
-0.197296	-1.032867	-0.488739
-0.236359	-0.997925	-0.452423
-0.191650	-1.073914	-0.452728
-0.035858	-1.055450	-0.484161
0.113983	-1.078033	-0.478210
0.177765	-1.035156	-0.448151
0.152435	-0.996704	-0.421295
0.069427	-1.011200	-0.395966
0.023041	-0.985565	-0.373993
-0.050354	-1.021576	-0.362854
-0.190277	-1.005554	-0.332794
-0.359497	-1.002350	-0.323944
-0.426941	-1.054993	-0.324554
-0.548859	-1.090088	-0.317230
-0.623016	-1.060944	-0.302429
-0.515289	-1.043854	-0.287170
-0.419769	-1.059113	-0.270538
-0.323334	-1.055145	-0.292511
-0.146484	-1.058044	-0.269012
0.145264	-1.020508	-0.257568
0.290833	-1.034393	-0.260773
0.268402	-1.059113	-0.234528
0.162048	-1.044312	-0.241547
0.034943	-1.075134	-0.267944
-0.023346	-1.092224	-0.222473
-0.070190	-1.053925	-0.232391
-0.124664	-1.042633	-0.212402
-0.160522	-1.028137	-0.202484
-0.160217	-1.047668	-0.212555
-0.108948	-1.041870	-0.189819
-0.016937	-0.974121	-0.193939
0.060425	-1.003418	-0.199585
0.053253	-1.006165	-0.149994
-0.006256	-1.067352	-0.181122
-0.102539	-1.055145	-0.154877
-0.156555	-1.021118	-0.149841
-0.183868	-1.029816	-0.167999
-0.135040	-1.020355	-0.139618
-0.044861	-1.036072	-0.123901
0.042267	-1.016235	-0.131226
0.125732	-1.040497	-0.125885
0.176697	-1.047211	-0.115814
0.105896	-1.021881	-0.134277
-0.013885	-0.933075	-0.114136
-0.059967	-0.851898	-0.082397
-0.063477	-0.904388	-0.085907
-0.103302	-0.884857	-0.037384
-0.184479	-0.857086	-0.088501
-0.319214	-0.831757	-0.059052
-0.306091	-0.777588	-0.083008
-0.196991	-0.726624	-0.057373
-0.100861	-0.611877	-0.036774
0.014954	-0.572052	-0.052643
0.167084	-0.530243	-0.064087
0.169373	-0.538177	-0.054932
0.085297	-0.497284	-0.049744
-0.027313	-0.426636	-0.048218
-0.095673	-0.372925	-0.034332
-0.091248	-0.331879	-0.021210
-0.081635	-0.243073	-0.046082
-0.081329	-0.071259	-0.014038
-0.072327	-0.021362	-0.008850
0.010223	0.116577	-0.012665
0.084534	0.275421	-0.005951
0.084229	0.424957	-0.006561
0.140686	0.602722	0.011444
0.070496	0.810852	0.051422
0.004272	1.081238	0.045471
-0.102234	1.309662	0.034485
-0.121613	1.586914	0.041809
-0.077057	1.791534	0.061798
-0.119171	1.973572	0.060120
-0.116730	2.147980	0.058746
-0.204926	2.336426	0.051117
-0.257263	2.540588	0.062561
-0.339203	2.644653	0.056305
-0.431061	2.653656	0.057068
-0.434570	2.643738	0.069885
-0.402679	2.648010	0.100250
-0.404510	2.312012	0.131073
-0.369873	1.776581	0.120544
-0.287781	1.392059	0.133972
-0.188446	0.918884	0.144196
-0.085449	0.584564	0.149994
-0.087738	0.308380	0.164795
-0.134277	0.074615	0.171356
-0.190430	-0.146332	0.180664
-0.151062	-0.319366	0.182800
-0.043335	-0.447235	0.191650
0.093689	-0.466003	0.190125
0.162811	-0.429840	0.232849
0.207520	-0.444336	0.224304
0.145111	-0.455627	0.217133
0.156097	-0.489349	0.270538
0.213928	-0.555878	0.224762
0.294495	-0.655975	0.234833
0.343323	-0.744324	0.255432
0.215759	-0.824890	0.222626
0.059204	-0.908356	0.249176
-0.053864	-0.938416	0.252686
-0.138855	-1.026154	0.289307
-0.102234	-1.133270	0.279388
0.036469	-1.214600	0.269470
0.150452	-1.233673	0.277863
0.396576	-1.196747	0.279083
0.756073	-1.243439	0.307617
1.115112	-1.288300	0.327148
1.219482	-1.277313	0.350037
0.695648	-1.234894	0.324249
-0.242157	-1.168976	0.298767
-1.354065	-1.168976	0.330048
-2.280579	-1.118469	0.351105
-2.635498	-1.146393	0.395813
-2.507935	-1.158295	0.365448
-1.721191	-1.139526	0.338898
-0.724030	-1.021271	0.401001
0.164642	-0.985870	0.355530
0.738983	-0.999908	0.377960
0.974121	-0.926819	0.391693
0.943451	-0.972595	0.388794
0.894470	-0.893097	0.399933
0.871735	-0.928192	0.354309
0.885315	-0.930786	0.339966
0.883942	-0.925140	0.348358
0.718384	-0.911407	0.367584
0.361481	-0.912628	0.358429
-0.062714	-0.942841	0.374451
-0.452576	-0.944214	0.412903
-0.886993	-0.923004	0.424805
-1.145020	-0.884094	0.417938
-1.198425	-0.926361	0.443268
-1.059265	-0.984497	0.401611
-0.798340	-0.951996	0.406494
-0.569763	-0.923920	0.421753
-0.284119	-0.929718	0.397186
-0.022583	-0.936127	0.404968
0.241547	-0.954437	0.412140
0.320740	-0.956879	0.403748
0.355835	-0.990295	0.423126
0.251617	-0.971375	0.420227
0.148163	-0.962219	0.459900
-0.095215	-0.968323	0.424652
-0.389404	-0.966492	0.413208
-0.562439	-0.915375	0.447998
-0.648346	-0.932007	0.414429
-0.553741	-0.956879	0.454254
-0.282745	-0.959015	0.443420
0.107880	-0.909576	0.488434
0.491791	-0.885773	0.509186
0.807495	-0.873718	0.543671
1.129456	-0.898895	0.533142
1.243591	-0.913544	0.558929
1.248779	-0.918884	0.570068
1.181335	-0.950165	0.554199
0.930939	-0.903931	0.574951
0.591583	-0.889893	0.585785
0.158081	-0.903320	0.584106
-0.154266	-0.884094	0.621185
-0.298309	-0.876312	0.610199
-0.244598	-0.889893	0.585480
-0.237579	-0.897369	0.622253
-0.277100	-0.914917	0.637360
-0.402679	-0.897217	0.647583
-0.463104	-0.934448	0.680389
-0.452423	-0.870819	0.641479
-0.408936	-0.818024	0.657196
-0.424652	-0.804749	0.702362
-0.486450	-0.823517	0.664825
-0.537415	-0.796967	0.684967
-0.701752	-0.813751	0.658875
-0.835571	-0.847931	0.704041
-0.905457	-0.845795	0.720062
-0.990753	-0.850830	0.729370
-0.918579	-0.852203	0.730896
-0.632629	-0.866547	0.766449
-0.249786	-0.827789	0.802002
-0.045929	-0.839386	0.820312
0.012207	-0.843658	0.863190
0.015564	-0.885620	0.893402
0.093994	-0.891876	0.867157
0.161896	-0.876160	0.962982
0.126495	-0.864868	0.977478
0.042572	-0.864716	0.990295
-0.133514	-0.875549	1.024170
-0.210571	-0.878754	1.051178
-0.241394	-0.859680	1.069946
-0.169220	-0.876923	1.050720
-0.059814	-0.834198	1.126556
0.005951	-0.794373	1.088715
0.062256	-0.816193	1.134644
0.073090	-0.812073	1.227875
0.095520	-0.768585	1.379547
0.083160	-0.792084	1.331635
0.098724	-0.825958	1.446991
0.053253	-0.798798	1.389771
0.035400	-0.771027	1.547546
0.023041	-0.782928	1.582794
0.059204	-0.795288	1.619415
0.050507	-0.814667	1.668701
0.054169	-0.820618	1.716461
0.094757	-0.821381	1.783295
0.138092	-0.828247	1.822662
0.246429	-0.839233	1.872253
0.314331	-0.795593	1.945953
0.318451	-0.780792	1.998596
0.289917	-0.769043	2.044373
0.286102	-0.778503	2.093201
0.179443	-0.727692	2.131653
0.042877	-0.789337	2.176666
-0.108490	-0.797119	2.227325
-0.270844	-0.752106	2.258148
-0.307312	-0.749207	2.335663
-0.304718	-0.793762	2.349701
-0.197601	-0.783997	2.407074
-0.162048	-0.821686	2.419128
-0.165405	-0.791626	2.491913
-0.210419	-0.790710	2.511292
-0.187683	-0.780792	2.564697
-0.123749	-0.791779	2.596893
-0.086975	-0.800018	2.649384
-0.067749	-0.779877	2.655334
-0.009460	-0.752716	2.713776
0.075836	-0.802155	2.713470
0.060577	-0.764771	2.716827
-0.005951	-0.760193	2.710571
-0.012817	-0.760956	2.715454
0.027771	-0.765381	2.708282
0.201111	-0.774536	2.695618
0.303650	-0.820770	2.710114
0.223846	-0.826874	2.709198
0.011292	-0.779572	2.711334
-0.185089	-0.744171	2.718201
-0.389862	-0.756073	2.719421
-0.435944	-0.742798	2.711029
-0.380402	-0.707245	2.718353
-0.288849	-0.689240	2.723389
-0.213470	-0.700989	2.722626
-0.178528	-0.743103	2.725983
-0.154114	-0.725098	2.717285
-0.083771	-0.683441	2.707672
-0.032501	-0.713501	2.693787
0.087280	-0.719757	2.707214
0.127411	-0.673065	2.725677
0.048676	-0.675659	2.713318
-0.099792	-0.705414	2.717133
-0.272522	-0.732880	2.717285
-0.378723	-0.750732	2.707062
-0.400696	-0.703125	2.729187
-0.390015	-0.693359	2.715759
-0.415039	-0.694885	2.727509
-0.382843	-0.733948	2.721710
-0.298615	-0.732269	2.699585
-0.212860	-0.694733	2.710724
-0.179749	-0.652466	2.710876
-0.131531	-0.623016	2.714539
-0.065002	-0.614166	2.715912
-0.098267	-0.641174	2.713928
-0.252228	-0.620422	2.723236
-0.274658	-0.620270	2.720642
-0.247498	-0.612946	2.723846
-0.234680	-0.611420	2.714539
-0.138397	-0.599213	2.711792
0.006714	-0.608368	2.716980
0.095062	-0.576630	2.712250
0.052795	-0.537109	2.712250
-0.044708	-0.570068	2.720184
-0.140686	-0.526733	2.695007
-0.179749	-0.540619	2.708282
-0.118561	-0.490265	2.711792
-0.070953	-0.464172	2.722473
-0.051880	-0.456696	2.697906
0.008392	-0.428619	2.713928
0.124207	-0.456390	2.703705
0.234680	-0.467377	2.713470
0.392303	-0.418854	2.708588
0.373535	-0.402985	2.695618
0.286255	-0.408783	2.704010
0.109406	-0.421753	2.701721
-0.009613	-0.420837	2.719421
-0.014648	-0.403137	2.715302
0.059967	-0.362396	2.716522
0.098877	-0.363770	2.715302
0.048370	-0.335541	2.715454
-0.046234	-0.304260	2.710419
-0.133667	-0.283813	2.707672
-0.218048	-0.343628	2.696533
-0.291138	-0.305328	2.710571
-0.186920	-0.310974	2.709351
-0.038147	-0.238953	2.712555
0.049744	-0.246124	2.709198
0.067749	-0.278168	2.696381
0.095062	-0.245209	2.719421
0.066833	-0.221252	2.723846
0.072479	-0.228729	2.713776
0.008087	-0.207214	2.698975
-0.007172	-0.171509	2.721863
0.053101	-0.245819	2.726746
0.039673	-0.247192	2.723541
0.052490	-0.228577	2.704468
0.028687	-0.233917	2.701263
-0.078888	-0.271149	2.698364
-0.194397	-0.266876	2.699738
-0.298157	-0.222015	2.719727
-0.339508	-0.199280	2.710419
-0.355530	-0.209961	2.720490
-0.291290	-0.171051	2.717590
-0.191193	-0.162659	2.719421
-0.062408	-0.118103	2.721405
0.033264	-0.160980	2.719421
0.077667	-0.142365	2.687836
0.053101	-0.112305	2.704926
-0.024261	-0.077209	2.712097
-0.133514	-0.062714	2.715302
-0.217590	-0.019836	2.722931
-0.227051	-0.060120	2.720032
-0.130768	-0.068817	2.695160
-0.064087	-0.077362	2.717438
-0.037537	-0.075989	2.714081
0.028534	-0.064240	2.705383
0.067139	-0.034027	2.708740
0.105896	-0.025024	2.699432
0.060272	-0.055695	2.720795
-0.011444	-0.088806	2.703552
-0.067902	-0.051575	2.714081
-0.091400	-0.034027	2.724152
-0.140533	-0.029755	2.724304
-0.107880	-0.023346	2.728882
-0.012054	-0.041656	2.719574
0.065002	-0.052338	2.713013
0.006256	-0.081329	2.712555
-0.025482	-0.103302	2.705994
-0.066681	-0.120697	2.703400
-0.090027	-0.137787	2.699432
-0.217133	-0.194397	2.659149
-0.327759	-0.186768	2.649689
-0.372620	-0.163574	2.605133
-0.319977	-0.189819	2.592468
-0.224762	-0.178833	2.587585
-0.127411	-0.190125	2.518768
-0.103760	-0.190125	2.549896
-0.092926	-0.182343	2.526703
-0.119781	-0.223999	2.499542
-0.101776	-0.276489	2.479248
-0.153809	-0.277252	2.461090
-0.242920	-0.303192	2.428741
-0.263824	-0.325623	2.413330
-0.188599	-0.358734	2.383270
-0.057678	-0.393677	2.379150
0.094452	-0.402069	2.344208
0.139313	-0.427246	2.346191
0.220795	-0.461578	2.304077
0.228271	-0.483551	2.334595
0.257874	-0.514984	2.245178
0.183105	-0.533600	2.234344
0.143280	-0.550385	2.237396
-0.024109	-0.531616	2.240601
-0.108185	-0.561066	2.230530
-0.213470	-0.606537	2.172852
-0.277710	-0.639038	2.178345
-0.364227	-0.682373	2.177429
-0.351562	-0.658875	2.130280
-0.270538	-0.684509	2.125549
-0.168915	-0.674286	2.106018
-0.006561	-0.657349	2.101898
0.080414	-0.722656	2.077789
0.152740	-0.743408	2.098694
0.260773	-0.723724	2.050781
0.260315	-0.757599	2.048492
0.144653	-0.738831	2.043915
-0.028229	-0.733795	2.026062
-0.149994	-0.747223	2.040253
-0.281067	-0.784149	2.022705
-0.341339	-0.826416	2.006683
-0.376434	-0.866241	1.982422
-0.335693	-0.844727	2.012482
-0.257111	-0.873108	1.983643
-0.096741	-0.900269	1.998291
0.070801	-0.933685	1.973419
0.069122	-0.932770	1.956635
0.035553	-0.913849	1.990509
-0.047760	-0.949097	1.958923
-0.150757	-0.961456	2.007904
-0.202484	-0.960999	2.006531
-0.178833	-0.965271	2.004089
-0.176086	-0.974426	1.973267
-0.155182	-0.960083	1.986084
-0.224457	-0.965881	2.006836
-0.229187	-0.981293	1.992798
-0.115356	-0.964508	1.971283
0.021362	-0.967712	1.978912
0.096283	-0.958710	2.023621
0.143127	-0.930481	1.986389
0.096741	-0.962524	2.029877
0.066681	-0.962372	1.983490
-0.011139	-0.951691	1.999207
-0.053558	-0.976410	2.001038
-0.093079	-1.015015	1.987762
-0.086365	-1.011963	2.012939
-0.063477	-1.044312	2.014923
-0.050049	-1.019897	1.989136
-0.009918	-1.025085	1.950073
-0.048370	-1.014557	1.935730
-0.015564	-1.029968	1.916962
0.002899	-1.036377	1.942444
-0.010529	-1.031799	1.916809
0.025940	-1.024017	1.897430
0.033264	-1.061401	1.892548
0.103912	-1.044464	1.885223
0.064392	-1.058502	1.864166
0.029907	-1.076813	1.815948
0.020905	-1.088715	1.836853
0.044098	-1.121216	1.816864
0.022430	-1.073608	1.796875
-0.036469	-1.074677	1.731873
-0.052948	-1.043243	1.739655
-0.120850	-1.057892	1.699982
-0.217896	-1.086426	1.666107
-0.236816	-1.113739	1.660004
-0.261230	-1.063385	1.590576
-0.295258	-1.070099	1.566162
-0.323639	-1.051483	1.527557
-0.312347	-1.041107	1.535187
-0.277405	-1.079102	1.519165
-0.355072	-1.035309	1.487274
-0.458527	-1.015015	1.426392
-0.531006	-1.020050	1.397858
-0.587921	-1.045074	1.399536
-0.676270	-1.092072	1.330414
-0.677795	-1.107483	1.324768
-0.461884	-1.098633	1.278229
-0.116577	-1.093140	1.288147
0.265350	-1.098480	1.190643
0.709229	-1.098938	1.177979
0.999756	-1.081543	1.219635
1.224670	-1.132202	1.090851
1.354828	-1.100922	1.067047
1.335907	-1.113281	1.037750
1.091766	-1.113434	0.988617
0.657806	-1.089325	0.995636
0.079041	-1.121674	0.894470
-0.444031	-1.087799	0.881805
-1.001740	-1.069336	0.873108
-1.372223	-1.124573	0.790100
-1.578064	-1.090851	0.785217
-1.654663	-1.060638	0.736389
-1.554565	-1.068420	0.741882
-1.288300	-1.061707	0.704193
-1.017761	-1.083832	0.615845
-0.698700	-1.089935	0.558319
-0.303955	-1.107178	0.593567
0.056610	-1.078339	0.515900
0.398865	-1.087646	0.485992
0.705261	-1.113434	0.485535
0.778351	-1.099243	0.449219
0.800171	-1.102295	0.470428
0.749817	-1.067200	0.461426
0.645752	-1.086121	0.473175
0.513153	-1.111603	0.464325
0.346375	-1.101379	0.458527
0.212860	-1.085205	0.509186
0.106659	-1.058044	0.469055
0.084076	-1.026001	0.515900
0.050964	-1.041718	0.510712
0.038910	-1.050262	0.507050
-0.010376	-1.080170	0.485687
-0.049286	-1.087036	0.541534
-0.131989	-1.048889	0.526581
-0.113068	-1.027222	0.557404
-0.102997	-1.062622	0.517883
-0.152588	-1.081848	0.546875
-0.220032	-1.022797	0.538483
-0.253754	-1.009369	0.543365
-0.287476	-1.043396	0.507812
-0.295258	-1.064148	0.565491
-0.288239	-1.099243	0.556793
-0.324860	-1.108856	0.546875
-0.363312	-1.108551	0.582275
-0.408478	-1.079407	0.572662
-0.395508	-1.060638	0.556335
-0.366974	-1.026917	0.571594
-0.332489	-1.079712	0.601807
-0.285187	-1.099548	0.575867
-0.290680	-1.080017	0.591888
-0.229492	-1.050873	0.583191
-0.198822	-1.091614	0.604248
-0.168304	-1.085205	0.571136
-0.115814	-1.082153	0.550385
-0.058441	-1.049194	0.592804
0.003815	-1.078033	0.559235
0.046234	-1.058807	0.552063
0.128021	-1.077728	0.561523
0.149689	-1.070557	0.549469
0.235138	-0.999603	0.584106
0.260162	-1.024017	0.545349
0.219574	-0.954895	0.576935
0.197754	-0.978851	0.557709
0.158539	-1.003571	0.533905
0.175781	-1.047516	0.503540
0.149994	-1.048279	0.523376
0.201416	-1.000061	0.551910
0.192108	-0.985413	0.540771
0.215759	-0.897980	0.518951
0.184784	-0.881805	0.491791
0.150909	-0.914307	0.500336
0.072784	-0.942535	0.501556
0.000916	-0.943604	0.535583
-0.024719	-0.989075	0.512543
-0.050659	-0.999298	0.516510
-0.062256	-1.034698	0.508423
-0.093384	-1.055145	0.484619
-0.121613	-1.087341	0.477142
-0.208282	-1.087494	0.529785
-0.349731	-1.147919	0.463562
-0.457764	-1.135254	0.477753
-0.491791	-1.121674	0.479736
-0.432587	-1.106567	0.485687
-0.365601	-1.103210	0.453186
-0.283203	-1.115112	0.424805
-0.242615	-1.137238	0.398712
-0.238953	-1.188507	0.489044
-0.214844	-1.165009	0.433044
-0.136719	-1.134186	0.430298
-0.176697	-1.182861	0.419006
-0.249023	-1.107330	0.415344
-0.292969	-1.104126	0.454102
-0.185089	-1.127167	0.417633
-0.017242	-1.102142	0.415344
0.102386	-1.082764	0.432587
0.132904	-1.087036	0.415344
0.092010	-1.081696	0.397644
0.047760	-1.061401	0.407410
-0.087891	-1.119995	0.390778
-0.237274	-1.113586	0.377808
-0.385132	-1.126709	0.333099
-0.442352	-1.108093	0.341492
-0.423126	-1.124115	0.346069
-0.367126	-1.119232	0.336151
-0.273437	-1.138916	0.297089
-0.173950	-1.065063	0.301361
-0.064087	-1.100311	0.301361
0.027466	-1.118317	0.285950
0.052185	-1.111755	0.299225
0.073853	-1.083374	0.269318
0.070343	-1.106567	0.249634
0.081482	-1.161346	0.262756
0.126343	-1.138458	0.219574
0.097656	-1.154938	0.247803
0.076447	-1.169586	0.216064
0.038147	-1.140289	0.223236
0.015411	-1.099548	0.215302
0.011292	-1.119080	0.196381
0.054779	-1.144409	0.180817
0.050659	-1.120758	0.203094
0.009003	-1.116333	0.121307
-0.022430	-1.109009	0.127258
-0.090332	-1.146393	0.101624
-0.161438	-1.113586	0.107574
-0.153351	-1.084595	0.103149
-0.188141	-1.056061	0.064240
-0.165863	-1.053467	0.046234
-0.164337	-1.061249	0.033264
-0.096283	-1.068878	-0.008392
-0.058594	-1.077423	0.016479
-0.014496	-1.089783	-0.003204
0.003204	-1.085968	-0.034332
-0.043945	-1.099548	-0.068817
-0.043793	-1.102753	-0.077972
-0.075226	-1.123505	-0.096893
-0.085144	-1.137695	-0.121765
-0.155792	-1.114044	-0.143127
-0.146484	-1.119690	-0.162201
-0.095367	-1.094208	-0.186920
-0.082092	-1.127319	-0.187683
-0.076141	-1.124573	-0.212250
-0.036926	-1.140137	-0.205383
-0.054932	-1.129913	-0.235138
-0.099030	-1.062927	-0.243988
-0.120544	-1.066742	-0.287476
-0.118866	-1.075592	-0.270386
-0.150452	-1.141663	-0.283966
-0.091095	-1.134796	-0.326691
-0.064240	-1.177673	-0.338287
-0.020752	-1.142273	-0.355988
-0.004272	-1.118469	-0.375671
-0.048676	-1.121674	-0.375977
0.027466	-1.089478	-0.393372
0.052185	-1.094360	-0.396576
0.044250	-1.026306	-0.410156
0.046844	-1.070862	-0.425568
0.011902	-1.103210	-0.449371
0.011902	-1.164093	-0.462952
-0.005035	-1.177216	-0.449677
-0.029297	-1.145630	-0.475006
-0.002289	-1.100922	-0.485687
0.001221	-1.080933	-0.473633
0.076752	-1.078186	-0.464020
0.112457	-1.075287	-0.479889
0.124664	-1.082764	-0.479584
0.126343	-1.106720	-0.481873
0.070953	-1.105042	-0.484009
0.016937	-1.085968	-0.509033
-0.081940	-1.110535	-0.541534
-0.140076	-1.073151	-0.510254
-0.223999	-1.078491	-0.522156
-0.253448	-1.100769	-0.546722
-0.202484	-1.106110	-0.530396
-0.291290	-1.170349	-0.587921
-0.238190	-1.125031	-0.555267
-0.245514	-1.118317	-0.575409
-0.257416	-1.115417	-0.554657
-0.219727	-1.128235	-0.594940
-0.141907	-1.192169	-0.583496
-0.119324	-1.219940	-0.604706
-0.163574	-1.169586	-0.600128
-0.175781	-1.173706	-0.623322
-0.111542	-1.183319	-0.626831
-0.086823	-1.183472	-0.648804
-0.047455	-1.217651	-0.636597
-0.038452	-1.191864	-0.656281
-0.036316	-1.224976	-0.655975
-0.095367	-1.213989	-0.676727
-0.150604	-1.200714	-0.652313
-0.162506	-1.165009	-0.696564
-0.129395	-1.210785	-0.703735
-0.101624	-1.199951	-0.718079
-0.012817	-1.177673	-0.707703
0.011902	-1.198425	-0.704651
0.023956	-1.174316	-0.749664
-0.007324	-1.179962	-0.719147
0.015411	-1.168060	-0.736084
0.037079	-1.192474	-0.744781
0.027161	-1.205750	-0.754089
0.002747	-1.181641	-0.759735
-0.068665	-1.196594	-0.762177
-0.099487	-1.207123	-0.768280
-0.158234	-1.221924	-0.762482
-0.173492	-1.219025	-0.785065
-0.191650	-1.219177	-0.782013
-0.171814	-1.137695	-0.765076
-0.146790	-1.147308	-0.808258
-0.086517	-1.159668	-0.811310
-0.115204	-1.149902	-0.813293
-0.154877	-1.172943	-0.825500
-0.110321	-1.179352	-0.830078
-0.108948	-1.217194	-0.811462
-0.091095	-1.176300	-0.824280
-0.088501	-1.205597	-0.847321
-0.057373	-1.213074	-0.853729
-0.040588	-1.214447	-0.859222
-0.044403	-1.185760	-0.884705
-0.052185	-1.205902	-0.893402
-0.053253	-1.198578	-0.878143
-0.046997	-1.224060	-0.893707
-0.085449	-1.220703	-0.931854
-0.102081	-1.192780	-0.933990
-0.105743	-1.193390	-0.951691
-0.101013	-1.204224	-0.918274
-0.080719	-1.184387	-0.944366
-0.078735	-1.239624	-0.952606
-0.066071	-1.219330	-0.976868
-0.054932	-1.243896	-0.967712
-0.067749	-1.235809	-0.973358
-0.064087	-1.269073	-1.010437
-0.107574	-1.261902	-1.021881
-0.086670	-1.216278	-1.049500
-0.084991	-1.204834	-1.030884
-0.101624	-1.220551	-1.082458
-0.058899	-1.205444	-1.065826
-0.004883	-1.201935	-1.064148
0.014496	-1.223602	-1.082458
-0.015564	-1.250458	-1.106262
-0.032806	-1.184387	-1.103821
-0.038452	-1.140289	-1.140442
-0.032043	-1.167145	-1.144714
-0.049591	-1.192932	-1.176147
-0.081940	-1.186066	-1.129456
-0.103455	-1.191254	-1.144257
-0.171204	-1.172791	-1.172943
-0.178833	-1.207733	-1.190948
-0.140228	-1.242218	-1.183929
-0.094757	-1.183167	-1.186218
-0.000763	-1.205750	-1.217499
0.100250	-1.222076	-1.249390
0.164185	-1.218262	-1.210480
0.193176	-1.224823	-1.242828
0.121155	-1.267548	-1.267090
-0.009918	-1.198120	-1.241150
-0.144196	-1.233978	-1.253510
-0.286407	-1.228790	-1.279907
-0.323792	-1.228943	-1.308136
-0.280914	-1.225433	-1.274872
-0.236053	-1.256409	-1.270142
-0.151215	-1.239929	-1.280060
-0.073395	-1.203613	-1.352234
-0.065155	-1.222992	-1.330566
-0.056763	-1.242065	-1.342316
-0.077209	-1.201935	-1.364594
-0.028381	-1.210632	-1.340332
-0.026245	-1.234283	-1.330872
0.013885	-1.244049	-1.379700
0.016479	-1.218872	-1.326752
0.016022	-1.226959	-1.357269
0.006409	-1.205597	-1.364594
-0.031891	-1.223907	-1.331940
-0.069580	-1.238861	-1.372070
-0.089874	-1.220245	-1.369171
-0.115814	-1.199646	-1.349945
-0.130920	-1.259766	-1.390839
-0.161133	-1.278839	-1.343994
-0.162964	-1.263885	-1.388550
-0.187683	-1.263885	-1.371918
-0.200043	-1.237640	-1.322632
-0.221252	-1.243286	-1.362152
-0.161438	-1.247101	-1.318512
-0.063782	-1.259003	-1.363373
-0.002136	-1.221619	-1.373444
0.049438	-1.199646	-1.306305
-0.006409	-1.195679	-1.324921
-0.054169	-1.229858	-1.313782
-0.116577	-1.231232	-1.312103
-0.160370	-1.205292	-1.338501
-0.188904	-1.234436	-1.305847
-0.227051	-1.266937	-1.333008
-0.212250	-1.280670	-1.348267
-0.159454	-1.210022	-1.296844
-0.157318	-1.252289	-1.343231
-0.123749	-1.238861	-1.289673
-0.091095	-1.232910	-1.328430
-0.068970	-1.225128	-1.331940
-0.006104	-1.300964	-1.310883
-0.045929	-1.290436	-1.323090
-0.045929	-1.237946	-1.304016
-0.072784	-1.231232	-1.341095
-0.054321	-1.245880	-1.301727
-0.010376	-1.297913	-1.286469
-0.019531	-1.309814	-1.331482
0.002136	-1.275787	-1.325531
0.034790	-1.264038	-1.294403
0.051727	-1.228027	-1.293030
0.039368	-1.228027	-1.344299
0.027008	-1.261597	-1.357269
0.002289	-1.237793	-1.331940
-0.017090	-1.242981	-1.303406
-0.039368	-1.278381	-1.366577
-0.125885	-1.263580	-1.306915
-0.136414	-1.301727	-1.338348
-0.187683	-1.298828	-1.330719
-0.178223	-1.269531	-1.324005
-0.227203	-1.292419	-1.336517
-0.234833	-1.222076	-1.351013
-0.224304	-1.241150	-1.361237
-0.191956	-1.278839	-1.348419
-0.182648	-1.271515	-1.372833
-0.162964	-1.279144	-1.349030
-0.163879	-1.231079	-1.378937
-0.151062	-1.203156	-1.363525
-0.109863	-1.245117	-1.412811
-0.094757	-1.242523	-1.366882
-0.063324	-1.223297	-1.346283
-0.048523	-1.217194	-1.425476
-0.061798	-1.236572	-1.349487
-0.076904	-1.223907	-1.375885
-0.093079	-1.229553	-1.397705
-0.082397	-1.271515	-1.412811
-0.046387	-1.296387	-1.421661
-0.037994	-1.246643	-1.393585
-0.031586	-1.334534	-1.405792
0.005493	-1.273956	-1.383972
-0.034790	-1.270905	-1.455536
-0.007019	-1.226959	-1.393585
-0.008087	-1.264648	-1.451111
-0.036316	-1.265411	-1.413422
-0.051117	-1.242218	-1.429749
-0.028076	-1.291656	-1.413574
-0.057220	-1.292114	-1.448822
-0.114594	-1.255188	-1.417389
-0.102997	-1.236267	-1.469116
-0.076141	-1.261597	-1.444397
-0.060577	-1.224365	-1.449738
-0.048065	-1.237335	-1.421661
-0.028839	-1.294861	-1.480103
0.002289	-1.309662	-1.470032
0.002899	-1.235962	-1.433411
-0.017090	-1.252289	-1.432343
-0.039062	-1.284943	-1.449890
-0.057373	-1.228638	-1.450806
-0.035706	-1.229706	-1.438751
-0.086060	-1.252594	-1.431274
-0.102844	-1.221313	-1.462860
-0.124817	-1.218414	-1.432648
-0.128326	-1.216431	-1.461945
-0.106659	-1.206360	-1.433868
-0.062103	-1.221161	-1.458893
-0.011139	-1.251068	-1.408844
0.010223	-1.217194	-1.411285
-0.003357	-1.278839	-1.439819
-0.027008	-1.246033	-1.449127
-0.096588	-1.215210	-1.427155
-0.075836	-1.192627	-1.398468
-0.155029	-1.288910	-1.425476
-0.218811	-1.255646	-1.447754
-0.214844	-1.259003	-1.403351
-0.116272	-1.273499	-1.397247
-0.029297	-1.212463	-1.420593
0.049133	-1.197815	-1.435699
0.037689	-1.239929	-1.413116
-0.044556	-1.263733	-1.446991
-0.063019	-1.262512	-1.439667
-0.085449	-1.248779	-1.412659
-0.136871	-1.234131	-1.429291
-0.193939	-1.277618	-1.394501
-0.243073	-1.253357	-1.393738
-0.253296	-1.301422	-1.392670
-0.215607	-1.314697	-1.401978
-0.143433	-1.233826	-1.421051
-0.094147	-1.210632	-1.380615
-0.024109	-1.180267	-1.419983
-0.001373	-1.264496	-1.385651
0.024109	-1.290588	-1.426849
-0.013123	-1.236420	-1.407013
0.010223	-1.263885	-1.343231
-0.027618	-1.262360	-1.416931
-0.055695	-1.254272	-1.372528
-0.056305	-1.254578	-1.374359
-0.099945	-1.253662	-1.358490
-0.108948	-1.253967	-1.410065
-0.120392	-1.273651	-1.395569
-0.061035	-1.265259	-1.382141
-0.044708	-1.307526	-1.405640
-0.032806	-1.275940	-1.361237
-0.048523	-1.237488	-1.379089
-0.068054	-1.237946	-1.380768
-0.125732	-1.273651	-1.380920
-0.163727	-1.281433	-1.405640
-0.205383	-1.280975	-1.383820
-0.162811	-1.270294	-1.392670
-0.126953	-1.287842	-1.422729
-0.089569	-1.270294	-1.415710
-0.039978	-1.255798	-1.423798
-0.054626	-1.291962	-1.414948
-0.035858	-1.308136	-1.459045
-0.059052	-1.232300	-1.398926
-0.099945	-1.254578	-1.455841
-0.120239	-1.225586	-1.402130
-0.154419	-1.290894	-1.469727
-0.134583	-1.244049	-1.422729
-0.105743	-1.294403	-1.455078
-0.057678	-1.247253	-1.466827
-0.037689	-1.228943	-1.473694
-0.040741	-1.230927	-1.449585
-0.094299	-1.165924	-1.451263
-0.152893	-1.205292	-1.495209
-0.200195	-1.180725	-1.461487
-0.243530	-1.157684	-1.492157
-0.215912	-1.153564	-1.470490
-0.163422	-1.156769	-1.526642
-0.119171	-1.138916	-1.506653
-0.116882	-1.132660	-1.484375
-0.083008	-1.111908	-1.498566
-0.034943	-1.154327	-1.464539
-0.011597	-1.132355	-1.490021
-0.019379	-1.099701	-1.531219
-0.046692	-1.124268	-1.503754
-0.064697	-1.125336	-1.510010
-0.110474	-1.109772	-1.549683
-0.079803	-1.110229	-1.516876
-0.057220	-1.108856	-1.564331
-0.056000	-1.053619	-1.491852
-0.053558	-1.027527	-1.575623
-0.051575	-1.026459	-1.569519
-0.018768	-1.013336	-1.540833
0.025940	-0.970306	-1.611938
0.026398	-0.936432	-1.559448
0.009918	-0.941925	-1.609497
0.012512	-0.940704	-1.585388
-0.032959	-0.923462	-1.587219
-0.089722	-0.908051	-1.581879
-0.075684	-0.919189	-1.582489
-0.072021	-0.919800	-1.601105
-0.083618	-0.905914	-1.574402
-0.102386	-0.896454	-1.638947
-0.064087	-0.908813	-1.639557
-0.060730	-0.872040	-1.647491
-0.031586	-0.898590	-1.620026
-0.009003	-0.910492	-1.624908
-0.046234	-0.875244	-1.632690
-0.092010	-0.894775	-1.671448
-0.076904	-0.877838	-1.655731
-0.108643	-0.862732	-1.641998
-0.082092	-0.896301	-1.622162
-0.087738	-0.915070	-1.633301
-0.135345	-0.905304	-1.646423
-0.081940	-0.910492	-1.645050
-0.117187	-0.870514	-1.676941
-0.091858	-0.915833	-1.677094
-0.061798	-0.882111	-1.650848
-0.031128	-0.903778	-1.650391
0.019989	-0.941772	-1.658630
0.025940	-0.947266	-1.714172
-0.001373	-0.942688	-1.714783
-0.032806	-0.984192	-1.735229
-0.041351	-0.931549	-1.673126
-0.110779	-0.922699	-1.638947
-0.166321	-0.923309	-1.689911
-0.228577	-0.965118	-1.753387
-0.217285	-0.979004	-1.729431
-0.140991	-0.961151	-1.679382
-0.013275	-0.955505	-1.663666
0.014648	-0.941772	-1.697845
-0.007477	-1.005554	-1.684723
-0.031891	-1.017761	-1.665802
-0.046387	-0.996857	-1.674194
-0.040131	-1.018982	-1.660156
-0.040436	-1.012421	-1.658783
-0.044098	-1.027069	-1.662445
-0.072021	-1.008453	-1.648102
-0.124817	-1.021271	-1.668854
-0.175476	-1.041718	-1.712799
-0.187378	-1.077576	-1.701050
-0.225372	-1.073761	-1.651306
-0.212860	-1.068268	-1.647491
-0.215302	-1.133423	-1.690521
-0.172577	-1.092682	-1.677856
-0.120392	-1.147461	-1.705475
-0.042114	-1.176758	-1.636505
0.007782	-1.176147	-1.655426
0.093536	-1.169281	-1.675262
0.165405	-1.209412	-1.705933
0.166473	-1.203613	-1.675415
0.146637	-1.257324	-1.682587
0.088196	-1.283264	-1.724243
0.007172	-1.282196	-1.688690
-0.028076	-1.317291	-1.702728
-0.050354	-1.293793	-1.672058
-0.073395	-1.290894	-1.675568
-0.096588	-1.378937	-1.725464
-0.146790	-1.351929	-1.726837
-0.190277	-1.382294	-1.719971
-0.171356	-1.400452	-1.729736
-0.156708	-1.401978	-1.703949
-0.121307	-1.422577	-1.720428
-0.061188	-1.443024	-1.739349
-0.035553	-1.412048	-1.711884
0.001831	-1.375580	-1.730652
-0.024109	-1.394043	-1.724243
-0.059814	-1.449890	-1.766663
-0.126038	-1.444244	-1.766510
-0.157318	-1.472321	-1.771851
-0.112152	-1.436920	-1.755371
-0.082092	-1.411285	-1.729584
-0.059662	-1.446686	-1.743622
-0.039062	-1.382446	-1.745911
-0.061188	-1.384888	-1.725769
-0.043640	-1.373749	-1.758881
-0.093842	-1.379089	-1.738586
-0.151672	-1.406250	-1.713867
-0.138855	-1.390991	-1.708221
-0.140228	-1.414032	-1.699371
-0.123444	-1.435699	-1.690979
-0.141144	-1.403503	-1.686249
-0.123444	-1.402130	-1.674194
-0.137787	-1.423035	-1.596985
-0.139923	-1.471252	-1.617889
-0.134277	-1.511230	-1.673279
-0.108795	-1.455536	-1.651764
-0.074768	-1.486816	-1.614075
-0.048676	-1.439056	-1.623688
0.005035	-1.461639	-1.638489
0.046234	-1.460266	-1.564331
-0.007019	-1.490173	-1.564484
-0.062408	-1.437836	-1.615753
-0.122528	-1.393738	-1.575165
-0.186310	-1.379089	-1.580048
-0.219116	-1.354523	-1.581421
-0.225830	-1.376495	-1.553650
-0.206604	-1.354218	-1.565094
-0.192108	-1.385651	-1.526642
-0.176849	-1.403351	-1.543884
-0.146179	-1.388092	-1.538544
-0.024567	-1.398315	-1.495056
0.067596	-1.442719	-1.485291
0.131836	-1.402130	-1.514130
0.107422	-1.430359	-1.496735
0.110626	-1.414948	-1.532135
0.064545	-1.424408	-1.480255
-0.031891	-1.432343	-1.524506
-0.052795	-1.397705	-1.491699
-0.061035	-1.414032	-1.501465
-0.012665	-1.403656	-1.499481
0.001373	-1.323395	-1.478271
0.010529	-1.321259	-1.459808
0.007629	-1.307831	-1.485596
-0.003204	-1.280975	-1.443787
-0.042572	-1.297150	-1.493378
-0.077057	-1.284943	-1.458435
-0.077057	-1.211395	-1.458282
-0.155029	-1.218109	-1.385651
-0.162201	-1.181946	-1.437378
-0.129852	-1.080475	-1.444244
-0.119629	-1.011963	-1.416016
-0.068512	-0.947876	-1.421204
-0.029449	-0.926819	-1.434631
0.016785	-0.916901	-1.408539
0.002747	-0.862732	-1.394196
-0.014038	-0.796204	-1.415405
-0.017242	-0.750732	-1.449585
-0.043488	-0.663147	-1.383362
-0.045471	-0.612640	-1.392822
-0.030670	-0.456085	-1.401825
-0.034332	-0.368805	-1.412964
-0.057220	-0.159149	-1.376953
-0.075836	-0.058594	-1.368866
-0.116272	0.084686	-1.358185
-0.136566	0.268097	-1.390686
-0.147095	0.517120	-1.372833
-0.103455	0.738525	-1.370239
-0.061798	1.012573	-1.346436
-0.071716	1.173553	-1.344757
-0.102081	1.378021	-1.340027
-0.199127	1.588898	-1.336670
-0.282898	1.775818	-1.320190
-0.318756	2.015686	-1.309204
-0.304260	2.195129	-1.292725
-0.276947	2.409058	-1.349640
-0.339508	2.452545	-1.312256
-0.360718	2.371216	-1.337891
-0.405273	2.248383	-1.319885
-0.369873	1.849976	-1.290741
-0.338440	1.329193	-1.286163
-0.273437	0.916290	-1.274719
-0.165558	0.518951	-1.256561
-0.075378	0.203705	-1.260376
-0.035400	-0.116730	-1.306458
0.080109	-0.315704	-1.246185
0.087280	-0.527649	-1.284790
0.070953	-0.696869	-1.289673
0.107880	-0.785675	-1.248932
0.148010	-0.794373	-1.279297
0.157776	-0.786285	-1.248779
0.214233	-0.794525	-1.247711
0.193176	-0.876312	-1.259155
0.226898	-0.979156	-1.252136
0.221863	-1.040039	-1.225891
0.212402	-1.136780	-1.206665
0.156403	-1.221008	-1.229706
0.094757	-1.341400	-1.246185
-0.037079	-1.407776	-1.269379
-0.102234	-1.485138	-1.264648
-0.124512	-1.539459	-1.234589
-0.061951	-1.640472	-1.286926
-0.013275	-1.678162	-1.245422
0.099182	-1.748810	-1.255188
0.291748	-1.736603	-1.257172
0.486450	-1.688538	-1.266937
0.788574	-1.707458	-1.262207
0.916290	-1.699066	-1.264343
0.557709	-1.630859	-1.230927
-0.159760	-1.577759	-1.219940
-1.192169	-1.623535	-1.204834
-2.165833	-1.575775	-1.254272
-2.668915	-1.624298	-1.223297
-2.562408	-1.520386	-1.205139
-1.856537	-1.443787	-1.217804
-0.949554	-1.400299	-1.242218
-0.040588	-1.453247	-1.204529
0.632172	-1.399231	-1.222076
1.101837	-1.377411	-1.173248
1.441498	-1.360016	-1.191101
1.564636	-1.320343	-1.183014
1.634674	-1.334991	-1.157227
1.542511	-1.318665	-1.170502
1.195984	-1.329803	-1.135559
0.623169	-1.319885	-1.164856
-0.026093	-1.334076	-1.134033
-0.613403	-1.463623	-1.105194
-1.106110	-1.431122	-1.125793
-1.387634	-1.422577	-1.120300
-1.390533	-1.358948	-1.098022
-1.254425	-1.436157	-1.050720
-0.956421	-1.418915	-1.098328
-0.581512	-1.453705	-1.100311
-0.178528	-1.339417	-1.040039
0.222931	-1.338501	-1.050873
0.569153	-1.328430	-1.034241
0.806274	-1.402588	-1.055450
0.803375	-1.426849	-1.023102
0.665283	-1.386414	-1.017456
0.279999	-1.326904	-1.020508
-0.289307	-1.360321	-0.998840
-0.826569	-1.363831	-0.986786
-1.158142	-1.343231	-0.921631
-1.168976	-1.418915	-0.946655
-0.909729	-1.372833	-0.946503
-0.413361	-1.422729	-0.910797
0.163422	-1.408691	-0.885010
0.691071	-1.369171	-0.855255
1.154022	-1.434631	-0.868988
1.419678	-1.373138	-0.804443
1.447449	-1.377563	-0.764465
1.299744	-1.402283	-0.768890
1.005859	-1.396942	-0.736084
0.619049	-1.336823	-0.713043
0.286407	-1.364899	-0.674896
0.045471	-1.410522	-0.668793
-0.082092	-1.358032	-0.652161
-0.153351	-1.351013	-0.620117
-0.132904	-1.358490	-0.560455
-0.209808	-1.313477	-0.564423
-0.269775	-1.295624	-0.529022
-0.379333	-1.374359	-0.532379
-0.488739	-1.374817	-0.493774
-0.643616	-1.423187	-0.463715
-0.795441	-1.372986	-0.431061
-0.935822	-1.314392	-0.401764
-0.992279	-1.369019	-0.396271
-1.019135	-1.354828	-0.355530
-0.954895	-1.295471	-0.330505
-0.853119	-1.340027	-0.318604
-0.737000	-1.349487	-0.294952
-0.619659	-1.286774	-0.279541
-0.436401	-1.302338	-0.238647
-0.250244	-1.322479	-0.234528
-0.069275	-1.321411	-0.198364
0.060577	-1.329346	-0.167084
0.162506	-1.402740	-0.142822
0.235596	-1.375275	-0.079498
0.219421	-1.299286	-0.048370
0.205383	-1.350555	0.026550
0.158844	-1.373138	0.038300
0.098724	-1.305847	0.050049
0.032501	-1.337128	0.115051
-0.052643	-1.408844	0.188599
-0.143585	-1.491089	0.221252
-0.235748	-1.400909	0.295868
-0.279541	-1.353760	0.340424
-0.283508	-1.291656	0.396881
-0.276947	-1.214142	0.449829
-0.209961	-1.204681	0.532684
-0.131989	-1.257019	0.569000
-0.026855	-1.316681	0.650635
0.098877	-1.300201	0.728455
0.212402	-1.272888	0.808411
0.277557	-1.329041	0.797272
0.418396	-1.246796	0.888214
0.434875	-1.283569	0.937195
0.411072	-1.279297	1.042938
0.334930	-1.324310	1.056671
0.266571	-1.332245	1.117401
0.249481	-1.297913	1.212006
0.182343	-1.278534	1.298828
0.117645	-1.314087	1.315918
0.023499	-1.295471	1.350250
-0.018768	-1.315155	1.474762
-0.050049	-1.298981	1.494598
-0.090790	-1.338043	1.525421
-0.131531	-1.268616	1.625061
-0.169373	-1.290894	1.637115
-0.212402	-1.310272	1.661377
-0.243073	-1.357117	1.697083
-0.251007	-1.378784	1.765900
-0.233002	-1.282959	1.859589
-0.202942	-1.207733	1.874542
-0.133820	-1.319275	1.962128
-0.072174	-1.309509	1.987305
-0.013885	-1.352234	2.050781
0.006561	-1.357574	2.081909
0.031891	-1.231995	2.115021
0.051880	-1.225586	2.139435
0.033569	-1.254883	2.191010
0.008545	-1.288757	2.264862
-0.037079	-1.207275	2.287598
-0.119781	-1.223145	2.353973
-0.167389	-1.280518	2.409058
-0.229187	-1.218262	2.420502
-0.289307	-1.271667	2.463379
-0.293579	-1.320801	2.515869
-0.285645	-1.264496	2.530365
-0.222321	-1.235046	2.570343
-0.143280	-1.152954	2.620544
-0.089264	-1.189880	2.658539
-0.058136	-1.182861	2.712555
-0.050354	-1.221008	2.705688
-0.057678	-1.343689	2.702484
-0.067902	-1.234131	2.706757
-0.052185	-1.101837	2.702332
-0.059204	-1.195526	2.713623
-0.067749	-1.293488	2.709045
-0.086365	-1.163483	2.724762
-0.078735	-1.109619	2.720032
-0.101776	-1.208344	2.711487
-0.190125	-1.181793	2.710114
-0.251007	-1.183319	2.712097
-0.323334	-1.119232	2.728271
-0.324402	-1.138916	2.706757
-0.266266	-1.112823	2.726135
-0.210114	-1.074829	2.709656
-0.187378	-1.055908	2.724609
-0.153961	-1.109467	2.713165
-0.158997	-1.155548	2.701111
-0.090179	-1.138763	2.712402
-0.042572	-1.097717	2.710419
-0.053406	-1.094513	2.722473
-0.030365	-1.050873	2.722321
-0.007935	-1.059418	2.712555
0.023804	-1.025085	2.715607
0.048981	-1.069183	2.726288
0.049438	-1.098480	2.703094
0.015411	-1.089325	2.711945
-0.013275	-1.129456	2.713623
-0.020142	-1.073608	2.705994
0.036011	-1.040497	2.709045
0.093231	-1.018066	2.709045
0.112152	-1.067047	2.718811
0.087280	-1.026001	2.691040
0.070190	-1.009979	2.713013
0.060577	-0.946350	2.720337
0.016937	-0.960999	2.726440
0.028839	-1.005096	2.716980
0.051117	-1.011963	2.709351
0.011139	-0.995636	2.715149
-0.100250	-0.902863	2.698212
-0.136261	-0.918579	2.699127
-0.171661	-0.865936	2.708130
-0.143280	-0.849304	2.720032
-0.091095	-0.859222	2.713776
-0.053711	-0.878143	2.722626
0.090332	-0.888977	2.723541
0.103912	-0.902863	2.719421
0.103149	-0.876465	2.718048
0.054016	-0.919495	2.700958
0.027313	-0.807800	2.728577
-0.047760	-0.810394	2.737427
-0.157928	-0.760956	2.711945
-0.218964	-0.738831	2.718964
-0.254822	-0.787201	2.715149
-0.272064	-0.748596	2.713470
-0.255280	-0.729065	2.712402
-0.269318	-0.742187	2.696991
-0.193176	-0.730133	2.717743
-0.133820	-0.727539	2.722015
-0.077667	-0.676117	2.727356
-0.041199	-0.726318	2.716217
0.000610	-0.704498	2.707672
0.011444	-0.700684	2.715454
-0.033264	-0.699310	2.704468
-0.073090	-0.659790	2.696228
-0.090485	-0.688782	2.702942
-0.095367	-0.645905	2.693939
-0.110168	-0.668030	2.698975
-0.103302	-0.692139	2.718353
-0.073090	-0.618896	2.721558
-0.020599	-0.549316	2.710419
-0.029144	-0.609283	2.710419
-0.074921	-0.612793	2.709351
-0.082245	-0.589142	2.712097
-0.094299	-0.579071	2.711945
-0.141296	-0.553741	2.723236
-0.168762	-0.569305	2.715454
-0.124969	-0.536499	2.674866
-0.081482	-0.539551	2.655640
0.020752	-0.492096	2.635803
0.078888	-0.522766	2.640991
0.163574	-0.507965	2.637787
0.153809	-0.547638	2.624664
0.073242	-0.533295	2.614899
0.010529	-0.471191	2.565308
0.002594	-0.468445	2.580109
0.027313	-0.460510	2.516937
0.002747	-0.492554	2.492523
-0.055847	-0.437317	2.465820
-0.054016	-0.427094	2.479553
-0.068207	-0.446320	2.472992
-0.097198	-0.477295	2.455139
-0.163574	-0.430298	2.454834
-0.224304	-0.463104	2.416229
-0.231476	-0.523071	2.388611
-0.221558	-0.496521	2.354279
-0.210876	-0.511169	2.377472
-0.192719	-0.501862	2.397156
-0.146790	-0.478821	2.365723
-0.118256	-0.521240	2.354736
-0.045624	-0.499878	2.367554
-0.001831	-0.488129	2.332153
0.070648	-0.527039	2.327271
0.060883	-0.517426	2.274323
0.028229	-0.538635	2.277679
-0.027313	-0.559692	2.274780
-0.065765	-0.572510	2.244263
-0.081482	-0.626831	2.249298
-0.081482	-0.619202	2.230377
-0.102539	-0.671997	2.224884
-0.124054	-0.709076	2.171173
-0.132751	-0.704346	2.207336
-0.153351	-0.706177	2.181396
-0.152130	-0.707245	2.170258
-0.139465	-0.771637	2.144012
-0.137939	-0.768127	2.119293
-0.126343	-0.844574	2.131653
-0.117493	-0.808411	2.105255
-0.166779	-0.825653	2.082825
-0.167999	-0.843201	2.088776
-0.177460	-0.905457	2.091217
-0.143585	-0.912476	2.074127
-0.130615	-0.966034	2.054443
-0.073090	-0.950470	2.021942
-0.068207	-0.914764	2.021332
-0.023956	-0.924377	2.018127
0.015869	-0.975952	2.008209
0.044861	-0.951385	2.001495
0.054016	-0.968628	2.024078
0.012512	-1.025543	1.956940
0.004730	-1.076202	1.932526
-0.060272	-1.130676	1.929779
-0.118256	-1.101837	1.976624
-0.124359	-1.119843	1.913605
-0.163879	-1.123199	1.913300
-0.092468	-1.103363	1.904602
-0.023346	-1.161346	1.939545
0.037384	-1.156311	1.936798
0.046234	-1.215210	1.917572
0.029144	-1.244354	1.919861
-0.014954	-1.307068	1.916351
-0.012054	-1.274567	1.919708
-0.089417	-1.253815	1.918030
-0.157776	-1.304626	1.885223
-0.184937	-1.325531	1.888123
-0.175629	-1.309052	1.851501
-0.214539	-1.267700	1.844788
-0.146484	-1.374359	1.826324
-0.068665	-1.310730	1.837921
-0.033722	-1.369934	1.867828
-0.007477	-1.379089	1.867828
-0.037689	-1.372070	1.828766
-0.053101	-1.386108	1.850586
-0.067444	-1.383514	1.791534
-0.114899	-1.344757	1.797791
-0.105438	-1.381073	1.785278
-0.103302	-1.420135	1.749115
-0.079803	-1.398163	1.741486
-0.063324	-1.438141	1.813354
-0.071716	-1.449738	1.748047
-0.081024	-1.478119	1.773376
-0.021057	-1.392975	1.770477
-0.022278	-1.380615	1.768494
-0.009003	-1.372833	1.756744
-0.008850	-1.474609	1.753235
-0.002747	-1.466827	1.739502
-0.048828	-1.497650	1.750183
-0.065460	-1.462250	1.744232
-0.043182	-1.484680	1.728973
-0.009308	-1.455688	1.740265
-0.025787	-1.500854	1.753540
-0.048218	-1.479797	1.713562
-0.013580	-1.443176	1.673431
0.043640	-1.435089	1.651154
0.021057	-1.403198	1.656342
-0.025330	-1.481323	1.656647
-0.088806	-1.469421	1.647491
-0.147400	-1.460114	1.652985
-0.178833	-1.428833	1.637115
-0.223236	-1.473999	1.579742
-0.235291	-1.518250	1.597748
-0.151825	-1.439362	1.576691
-0.141449	-1.504517	1.560974
-0.162201	-1.470032	1.538239
-0.144501	-1.420593	1.520081
-0.149994	-1.506348	1.444855
-0.149384	-1.510468	1.439819
-0.160370	-1.477203	1.484222
-0.161896	-1.474304	1.440735
-0.236053	-1.435394	1.370087
-0.335236	-1.436005	1.357117
-0.378571	-1.419067	1.303711
-0.363312	-1.447906	1.338654
-0.439148	-1.381378	1.263885
-0.544281	-1.415558	1.299591
-0.576630	-1.408386	1.207581
-0.449524	-1.430359	1.217499
-0.188141	-1.443939	1.207123
0.229645	-1.446838	1.122589
0.624542	-1.455688	1.127930
0.944214	-1.512451	1.070709
1.107330	-1.466064	1.079102
1.338501	-1.471100	1.049500
1.410522	-1.504669	0.996857
1.221313	-1.516418	0.988312
0.760651	-1.494141	0.944366
0.151978	-1.474609	0.897675
-0.454102	-1.417999	0.878754
-0.940247	-1.445312	0.839539
-1.269836	-1.501160	0.791473
-1.469879	-1.493683	0.723114
-1.571960	-1.471252	0.709686
-1.485901	-1.510315	0.708466
-1.197052	-1.450348	0.616302
-0.797577	-1.478882	0.609436
-0.340424	-1.510620	0.545197
0.091705	-1.500092	0.520172
0.484161	-1.523437	0.501556
0.733948	-1.487274	0.440826
0.814209	-1.495514	0.456543
0.787201	-1.501465	0.427856
0.535583	-1.469269	0.413208
0.261078	-1.542053	0.370941
0.000610	-1.487579	0.390320
-0.220337	-1.521149	0.350037
-0.345306	-1.466064	0.378265
-0.448456	-1.489716	0.374146
-0.490723	-1.519012	0.379486
-0.459137	-1.534271	0.372772
-0.394897	-1.532288	0.387268
-0.277557	-1.531525	0.395355
-0.080261	-1.507111	0.387115
0.165405	-1.551361	0.371246
0.290833	-1.476746	0.369720
0.386810	-1.519775	0.352631
0.312653	-1.487427	0.361938
0.252075	-1.495056	0.362854
0.140686	-1.475220	0.405731
-0.016022	-1.485138	0.354462
-0.119171	-1.514435	0.393066
-0.274200	-1.438141	0.359344
-0.438385	-1.452942	0.343781
-0.563812	-1.492920	0.375519
-0.608978	-1.444855	0.350189
-0.583801	-1.515808	0.374756
-0.512238	-1.501923	0.351257
-0.383301	-1.535797	0.369415
-0.275269	-1.531372	0.366669
-0.155945	-1.466522	0.338593
-0.054779	-1.435547	0.393982
0.043945	-1.478577	0.359802
0.104828	-1.507416	0.384216
0.159149	-1.479340	0.375214
0.215912	-1.535187	0.369263
0.216675	-1.460876	0.361481
0.232697	-1.460876	0.386200
0.235443	-1.491089	0.411835
0.193939	-1.484833	0.407715
0.134888	-1.481781	0.360870
0.128326	-1.520233	0.392456
0.051575	-1.489410	0.422363
-0.012360	-1.444702	0.417786
0.033722	-1.449432	0.375366
0.055389	-1.519928	0.430756
0.101318	-1.529083	0.395355
0.160522	-1.563721	0.366364
0.120850	-1.527863	0.405731
0.144043	-1.492767	0.423584
0.141602	-1.489258	0.375214
0.101929	-1.507111	0.399170
0.062866	-1.502380	0.385284
-0.018005	-1.493225	0.397186
-0.119934	-1.487427	0.363922
-0.206146	-1.475372	0.391235
-0.244293	-1.497192	0.363922
-0.232697	-1.490631	0.358124
-0.216064	-1.510468	0.337219
-0.232086	-1.535492	0.320587
-0.197906	-1.463318	0.335846
-0.194550	-1.524048	0.338135
-0.228729	-1.480560	0.326385
-0.259552	-1.558838	0.337677
-0.265045	-1.509552	0.282288
-0.265961	-1.495361	0.319824
-0.291901	-1.547699	0.276489
-0.249329	-1.480103	0.277557
-0.205383	-1.506500	0.258942
-0.169830	-1.548767	0.236206
-0.154266	-1.550293	0.234528
-0.134888	-1.518402	0.208282
-0.146790	-1.548615	0.217438
-0.163879	-1.529694	0.203857
-0.185852	-1.469574	0.192719
-0.167847	-1.512451	0.203247
-0.122528	-1.509705	0.197601
-0.068359	-1.492767	0.163116
-0.097961	-1.481781	0.204315
-0.131226	-1.552277	0.161133
-0.165558	-1.507416	0.122223
-0.152435	-1.568604	0.145416
-0.205231	-1.553955	0.132446
-0.196381	-1.503296	0.098724
-0.194092	-1.498871	0.072479
-0.139465	-1.483002	0.117798
-0.090332	-1.504669	0.109863
-0.085907	-1.473389	0.086517
-0.072174	-1.462250	0.066528
-0.052338	-1.523590	0.069122
-0.028687	-1.473083	0.106201
-0.003052	-1.502380	0.055237
0.011139	-1.533813	0.006256
0.016632	-1.505280	0.015411
0.044403	-1.517334	0.010071
0.068207	-1.544800	0.017395
0.105743	-1.526794	-0.002594
0.146332	-1.510925	-0.011444
0.157928	-1.466370	-0.003052
0.076752	-1.520691	-0.034027
0.026550	-1.544037	-0.030975
-0.023651	-1.513824	-0.041656
-0.070648	-1.504669	-0.077972
-0.075836	-1.492462	-0.056152
-0.072479	-1.518250	-0.126343
-0.066833	-1.488342	-0.103302
-0.053406	-1.464386	-0.134735
-0.011749	-1.517487	-0.115814
-0.007477	-1.510162	-0.134735
-0.004272	-1.495056	-0.150299
-0.051880	-1.512299	-0.157318
-0.038147	-1.496582	-0.177002
-0.071564	-1.530609	-0.161285
-0.095520	-1.497650	-0.167847
-0.099640	-1.562500	-0.208130
-0.112457	-1.547089	-0.199127
-0.114288	-1.528625	-0.222473
-0.095825	-1.563721	-0.222015
-0.057373	-1.503754	-0.243530
-0.024719	-1.487885	-0.253296
-0.010834	-1.539459	-0.253601
-0.036163	-1.496124	-0.276794
-0.077362	-1.512604	-0.282440
-0.146027	-1.519928	-0.282898
-0.135345	-1.495819	-0.278625
-0.136108	-1.466064	-0.236969
-0.121307	-1.463470	-0.287170
-0.091553	-1.501923	-0.313873
-0.049591	-1.446686	-0.292664
-0.048676	-1.528320	-0.328522
-0.052643	-1.561584	-0.335693
-0.071869	-1.506805	-0.375214
-0.118256	-1.511536	-0.379028
-0.168152	-1.514282	-0.363159
-0.187836	-1.525879	-0.371094
-0.165100	-1.561737	-0.378723
-0.133514	-1.510010	-0.386810
-0.089569	-1.501007	-0.404053
-0.016174	-1.527557	-0.411530
-0.018005	-1.532135	-0.433655
-0.011749	-1.525269	-0.470123
-0.034637	-1.494598	-0.453339
-0.035095	-1.558380	-0.440369
-0.021057	-1.524506	-0.482025
-0.063477	-1.610107	-0.497437
-0.037537	-1.552582	-0.483093
-0.016174	-1.516113	-0.487366
0.003815	-1.527252	-0.529480
0.012207	-1.549988	-0.500946
0.004883	-1.553650	-0.516663
-0.050964	-1.555023	-0.529022
-0.064240	-1.517792	-0.551910
-0.056000	-1.524200	-0.557404
-0.043182	-1.586761	-0.571442
-0.022736	-1.596527	-0.575562
-0.045319	-1.573334	-0.609131
-0.091858	-1.532593	-0.639038
-0.077362	-1.565857	-0.613098
-0.076752	-1.536102	-0.619202
-0.043030	-1.594086	-0.656738
-0.084534	-1.607056	-0.652618
-0.092316	-1.573639	-0.658569
-0.118713	-1.543274	-0.675201
-0.100708	-1.589050	-0.683746
-0.096893	-1.620636	-0.702972
-0.083008	-1.560211	-0.731049
-0.088196	-1.602631	-0.766296
-0.137482	-1.605988	-0.766449
-0.203247	-1.620178	-0.777893
-0.191650	-1.619263	-0.772247
-0.135803	-1.586609	-0.788422
-0.080872	-1.559143	-0.810394
-0.014496	-1.580353	-0.786743
0.031891	-1.583099	-0.837402
-0.017242	-1.604614	-0.854950
-0.040588	-1.599426	-0.863800
-0.079803	-1.622620	-0.903015
-0.172729	-1.658020	-0.885162
-0.231323	-1.622772	-0.931396
-0.223541	-1.588593	-0.945282
-0.221405	-1.601562	-0.955048
-0.209808	-1.631470	-0.965424
-0.147247	-1.632843	-0.981598
-0.085602	-1.638031	-0.977783
-0.086975	-1.564484	-0.983124
-0.057831	-1.578064	-1.020813
-0.058746	-1.561737	-1.051483
-0.071869	-1.551514	-1.059265
-0.068970	-1.620178	-1.060181
-0.121613	-1.631622	-1.094971
-0.124359	-1.606445	-1.077118
-0.097656	-1.569824	-1.096344
-0.096283	-1.641998	-1.104736
-0.073242	-1.633911	-1.125336
-0.114594	-1.660919	-1.126709
-0.152283	-1.641083	-1.114044
-0.153351	-1.636353	-1.147156
-0.130463	-1.660156	-1.210785
-0.049438	-1.619263	-1.180878
0.033264	-1.639099	-1.177063
0.092468	-1.602631	-1.216888
0.053558	-1.620483	-1.236877
0.081635	-1.649323	-1.223145
0.049744	-1.662598	-1.230774
-0.035553	-1.591034	-1.268158
-0.091095	-1.577759	-1.263580
-0.091095	-1.623840	-1.290131
-0.104523	-1.619415	-1.268463
-0.115967	-1.598053	-1.312103
-0.118408	-1.589203	-1.277008
-0.098877	-1.622314	-1.324615
-0.099945	-1.605225	-1.288147
-0.097656	-1.645050	-1.294556
-0.077515	-1.597443	-1.323700
-0.066528	-1.641083	-1.371307
-0.000916	-1.634369	-1.381378
0.034332	-1.669617	-1.375580
0.045929	-1.616364	-1.360779
0.044403	-1.647339	-1.337585
0.059967	-1.638184	-1.389008
0.040436	-1.594849	-1.368713
-0.020447	-1.577759	-1.382294
-0.101776	-1.642609	-1.391907
-0.139618	-1.667023	-1.369324
-0.168304	-1.627655	-1.381989
-0.204315	-1.632233	-1.409607
-0.181885	-1.644287	-1.436615
-0.153198	-1.647491	-1.391449
-0.140076	-1.657562	-1.428986
-0.152435	-1.643524	-1.456757
-0.084991	-1.635590	-1.437225
-0.084381	-1.653290	-1.451874
-0.073090	-1.644287	-1.492615
-0.067291	-1.655579	-1.470337
-0.086975	-1.697388	-1.472473
-0.053711	-1.638336	-1.467896
-0.034027	-1.674652	-1.468811
-0.016174	-1.632233	-1.526184
-0.032196	-1.644592	-1.493683
-0.066833	-1.658173	-1.573944
-0.040436	-1.628571	-1.525421
-0.028839	-1.678009	-1.548615
0.001068	-1.620483	-1.499939
0.028076	-1.652374	-1.544189
-0.024414	-1.656494	-1.525116
-0.058289	-1.679840	-1.549377
-0.125885	-1.640167	-1.559296
-0.191650	-1.685181	-1.526947
-0.217285	-1.653290	-1.555786
-0.234680	-1.711426	-1.563416
-0.174866	-1.682587	-1.590424
-0.136108	-1.658020	-1.544647
-0.155334	-1.612701	-1.564636
-0.148010	-1.651001	-1.605377
-0.093994	-1.658325	-1.546783
-0.061188	-1.674500	-1.620026
-0.068817	-1.627808	-1.648865
-0.044861	-1.698456	-1.622925
-0.056152	-1.702576	-1.604462
-0.109406	-1.658630	-1.632538
-0.156403	-1.635742	-1.654205
-0.192261	-1.676331	-1.610870
-0.182190	-1.659393	-1.634521
-0.116425	-1.694489	-1.644592
-0.073547	-1.706390	-1.681213
-0.051880	-1.708069	-1.637115
-0.005646	-1.683807	-1.659241
0.031586	-1.697998	-1.682434
-0.004120	-1.659851	-1.658936
-0.022125	-1.670685	-1.695251
-0.062103	-1.665039	-1.687164
-0.124054	-1.694946	-1.682281
-0.113678	-1.627350	-1.689453
-0.126953	-1.642914	-1.700592
-0.128937	-1.662445	-1.713715
-0.101776	-1.635742	-1.738739
-0.084076	-1.672363	-1.707306
-0.027924	-1.690521	-1.734772
0.000916	-1.655884	-1.702271
-0.045624	-1.703186	-1.712341
-0.123901	-1.722260	-1.694946
-0.119934	-1.703186	-1.755981
-0.064087	-1.691742	-1.733246
0.041656	-1.666412	-1.735535
0.049133	-1.665039	-1.735840
0.087128	-1.691895	-1.707458
0.066071	-1.687775	-1.731262
0.044556	-1.653442	-1.745758
0.018005	-1.680603	-1.778107
-0.081940	-1.689758	-1.727905
-0.101776	-1.615448	-1.716309
-0.122986	-1.623077	-1.748352
-0.104218	-1.664429	-1.755371
-0.055847	-1.635590	-1.767120
-0.026093	-1.690369	-1.782990
-0.019836	-1.667938	-1.726837
-0.027008	-1.712036	-1.763916
-0.092468	-1.629486	-1.728516
-0.169525	-1.668854	-1.751862
-0.244446	-1.670074	-1.748352
-0.268402	-1.669922	-1.751709
-0.271149	-1.686707	-1.698303
-0.187683	-1.678009	-1.715240
-0.162201	-1.633606	-1.727448
-0.073242	-1.683960	-1.679535
-0.049744	-1.714325	-1.689301
-0.051727	-1.655273	-1.738129
-0.040741	-1.681976	-1.721344
-0.041351	-1.695099	-1.699219
-0.095825	-1.674194	-1.701050
-0.126495	-1.685944	-1.658936
-0.103149	-1.689148	-1.713409
-0.056152	-1.656189	-1.634064
-0.064545	-1.738129	-1.660919
-0.076294	-1.691437	-1.630707
-0.108490	-1.692810	-1.635284
-0.105743	-1.698151	-1.614380
-0.090637	-1.694183	-1.604462
-0.096283	-1.735840	-1.607819
-0.116425	-1.690674	-1.608124
-0.122681	-1.665802	-1.632538
-0.093994	-1.652679	-1.633301
-0.062408	-1.686401	-1.601257
-0.054169	-1.725616	-1.617432
-0.063324	-1.678314	-1.608276
-0.090790	-1.676178	-1.607056
-0.087738	-1.627045	-1.581268
-0.081024	-1.675568	-1.609650
-0.015411	-1.683044	-1.603851
0.049896	-1.699524	-1.582794
0.059357	-1.704712	-1.622009
0.025940	-1.729889	-1.642456
0.001373	-1.681366	-1.604156
0.001373	-1.711578	-1.587677
-0.005035	-1.716766	-1.565857
-0.022278	-1.692505	-1.614380
-0.066071	-1.694794	-1.574860
-0.128021	-1.694946	-1.571045
-0.142365	-1.662445	-1.580963
-0.170441	-1.707458	-1.622009
-0.179443	-1.656189	-1.598663
-0.197754	-1.654358	-1.609650
-0.212402	-1.688995	-1.576843
-0.210724	-1.658325	-1.561127
-0.221863	-1.667175	-1.613312
-0.147400	-1.685333	-1.540222
-0.112000	-1.707611	-1.571655
-0.072327	-1.666412	-1.602936
-0.046234	-1.671448	-1.569977
-0.031891	-1.647491	-1.546173
0.013733	-1.682434	-1.597137
-0.012360	-1.699524	-1.584167
-0.028076	-1.676025	-1.558990
-0.023804	-1.676025	-1.542511
-0.023956	-1.671600	-1.576538
-0.039062	-1.674805	-1.581726
-0.038910	-1.726379	-1.535187
-0.029602	-1.650085	-1.544037
-0.045319	-1.657562	-1.552429
-0.076294	-1.705017	-1.532135
-0.081482	-1.641388	-1.501770
-0.115356	-1.716461	-1.476288
-0.133514	-1.692810	-1.469116
-0.099487	-1.693726	-1.482239
-0.090790	-1.710510	-1.509552
-0.090027	-1.729431	-1.491089
-0.088043	-1.725922	-1.519775
-0.116272	-1.681366	-1.454315
-0.124817	-1.725769	-1.517029
-0.093994	-1.665497	-1.445465
-0.104065	-1.674194	-1.498871
-0.122833	-1.698151	-1.433563
-0.146332	-1.660767	-1.464691
-0.156555	-1.646271	-1.486969
-0.151672	-1.725006	-1.464081
-0.067749	-1.679840	-1.469574
-0.032654	-1.726532	-1.452942
-0.012665	-1.689453	-1.472473
0.016937	-1.713104	-1.411133
0.037384	-1.726685	-1.456451
0.018616	-1.657715	-1.393280
0.003510	-1.690674	-1.432343
-0.083923	-1.712341	-1.398621
-0.155487	-1.681366	-1.362000
-0.212097	-1.734924	-1.363068
-0.191803	-1.739655	-1.409912
-0.182190	-1.750183	-1.369324
-0.130768	-1.671143	-1.375275
-0.093994	-1.690216	-1.326141
-0.011597	-1.660309	-1.338654
0.010071	-1.721344	-1.348724
0.016785	-1.649017	-1.270905
0.019531	-1.687164	-1.282043
0.018463	-1.654968	-1.302338
-0.045013	-1.648102	-1.233063
-0.081940	-1.640167	-1.216125
-0.078278	-1.715088	-1.208801
-0.145264	-1.669922	-1.205902
-0.182953	-1.640625	-1.178894
-0.160065	-1.669006	-1.148376
-0.082397	-1.641846	-1.163330
-0.079041	-1.634979	-1.193390
-0.077515	-1.631470	-1.154175
-0.075531	-1.639099	-1.129303
-0.080261	-1.588440	-1.147308
-0.100861	-1.598053	-1.157684
-0.034790	-1.607361	-1.128235
0.025024	-1.555176	-1.106720
0.068207	-1.585236	-1.075439
0.117950	-1.594086	-1.102295
0.084381	-1.598816	-1.087799
0.014801	-1.575165	-1.070404
-0.007782	-1.576233	-1.096802
-0.043640	-1.504669	-1.065521
-0.080719	-1.487579	-1.081696
-0.067749	-1.478119	-1.121063
-0.042419	-1.441650	-1.099243
-0.017242	-1.477051	-1.107941
0.014343	-1.452942	-1.092987
0.013580	-1.504517	-1.116638
-0.020599	-1.443176	-1.084900
-0.065918	-1.464386	-1.078796
-0.123596	-1.412201	-1.123962
-0.151825	-1.456604	-1.122284
-0.131226	-1.467743	-1.130676
-0.135956	-1.418762	-1.112976
-0.130920	-1.371155	-1.111755
-0.124207	-1.336670	-1.134338
-0.099182	-1.310425	-1.107788
-0.094147	-1.388245	-1.111603
-0.087128	-1.357727	-1.116333
-0.103760	-1.356964	-1.103821
-0.159302	-1.384277	-1.113739
-0.143585	-1.353760	-1.149139
-0.089264	-1.364899	-1.182556
-0.082245	-1.415558	-1.158600
-0.028534	-1.345978	-1.139832
-0.021515	-1.346283	-1.140900
-0.062408	-1.379089	-1.123199
-0.117645	-1.333313	-1.160583
-0.133972	-1.283569	-1.133423
-0.133820	-1.322784	-1.134033
-0.157318	-1.319427	-1.094666
-0.153503	-1.360931	-1.115875
-0.148926	-1.395721	-1.117096
-0.101929	-1.400299	-1.096191
-0.061493	-1.409302	-1.096191
-0.030060	-1.452026	-1.106873
0.013733	-1.362305	-1.101837
0.034027	-1.436615	-1.069031
0.054474	-1.441345	-1.066589
0.055389	-1.435852	-1.063690
0.018768	-1.390381	-1.096344
-0.018311	-1.401367	-1.085510
-0.030212	-1.351624	-1.082611
-0.045624	-1.376495	-1.091461
-0.023193	-1.407928	-1.056976
-0.032501	-1.397858	-1.006775
-0.015106	-1.460266	-1.074524
-0.016937	-1.472473	-1.000366
-0.008850	-1.483765	-1.034393
-0.026093	-1.460114	-1.029968
-0.081024	-1.425476	-1.015472
-0.173340	-1.452332	-1.008911
-0.177460	-1.481934	-0.977325
-0.189667	-1.482239	-0.934906
-0.115204	-1.460724	-0.954590
-0.065613	-1.456909	-0.920715
-0.036469	-1.496582	-0.929260
0.022430	-1.509857	-0.911102
-0.054016	-1.500092	-0.919647
-0.067291	-1.592712	-0.907593
-0.141602	-1.548309	-0.931091
-0.226440	-1.586914	-0.845642
-0.251312	-1.595917	-0.883331
-0.242157	-1.611023	-0.866089
-0.265808	-1.623993	-0.834503
-0.208588	-1.619263	-0.795746
-0.171661	-1.639557	-0.805206
-0.151215	-1.673889	-0.780945
-0.135498	-1.689758	-0.796509
-0.114899	-1.649323	-0.785217
-0.062256	-1.645966	-0.752258
0.020905	-1.710358	-0.789642
0.063171	-1.743774	-0.711517
0.082092	-1.664734	-0.765533
0.072632	-1.748047	-0.733643
0.015259	-1.694336	-0.725250
-0.038757	-1.761932	-0.713806
-0.110931	-1.775055	-0.726318
-0.192566	-1.719208	-0.771484
-0.208893	-1.730957	-0.726166
-0.164185	-1.757202	-0.701752
-0.117340	-1.767578	-0.754242
-0.039368	-1.786957	-0.716705
0.048828	-1.822662	-0.724945
0.105591	-1.849365	-0.688629
0.102844	-1.851044	-0.705719
0.111847	-1.872253	-0.711365
0.070801	-1.833801	-0.685425
0.009766	-1.839905	-0.673065
-0.013580	-1.846313	-0.691833
-0.054169	-1.844788	-0.722809
-0.075989	-1.846008	-0.736694
-0.117187	-1.821899	-0.678864
-0.155945	-1.823273	-0.711975
-0.164948	-1.812286	-0.711060
-0.184479	-1.816559	-0.651245
-0.231018	-1.797028	-0.656586
-0.188293	-1.761017	-0.680389
-0.115356	-1.804199	-0.682983
-0.092926	-1.835632	-0.671844
-0.079193	-1.842346	-0.646057
-0.017090	-1.859589	-0.660858
0.003967	-1.835175	-0.658264
-0.026245	-1.836090	-0.658112
-0.101929	-1.814423	-0.653992
-0.132599	-1.834869	-0.645905
-0.142822	-1.859436	-0.660553
-0.153961	-1.861420	-0.663757
-0.189209	-1.827240	-0.656891
-0.231781	-1.851807	-0.659180
-0.285034	-1.854858	-0.670013
-0.251160	-1.847687	-0.645599
-0.169983	-1.814880	-0.608521
-0.074768	-1.810608	-0.612793
-0.044556	-1.809387	-0.587158
-0.023346	-1.850891	-0.579376
-0.024567	-1.848755	-0.581207
0.000000	-1.847382	-0.578308
0.029449	-1.834869	-0.579529
0.053253	-1.842957	-0.571442
0.060425	-1.880341	-0.587921
0.084534	-1.887970	-0.549011
0.105133	-1.899109	-0.523682
0.100555	-1.852112	-0.518646
0.038910	-1.847839	-0.533752
-0.027313	-1.844788	-0.538025
-0.072632	-1.844635	-0.519257
-0.116425	-1.854858	-0.507507
-0.128174	-1.860504	-0.487823
-0.177155	-1.844025	-0.506439
-0.176697	-1.838226	-0.531769
-0.171509	-1.825409	-0.522461
-0.183411	-1.781006	-0.484619
-0.216064	-1.756592	-0.481110
-0.269165	-1.732178	-0.491638
-0.296783	-1.734619	-0.477448
-0.257721	-1.686707	-0.491028
-0.201874	-1.617126	-0.455627
-0.136414	-1.579742	-0.483856
-0.116119	-1.537628	-0.496216
-0.116577	-1.475067	-0.505219
-0.130768	-1.397858	-0.476685
-0.135498	-1.309814	-0.480804
-0.157623	-1.311340	-0.502014
-0.135040	-1.303406	-0.456696
-0.101166	-1.280975	-0.465240
-0.072784	-1.255493	-0.468445
-0.063171	-1.232147	-0.449829
-0.015717	-1.129303	-0.481110
0.023956	-1.044159	-0.462341
0.075226	-0.950012	-0.473328
0.152740	-0.868988	-0.455933
0.220947	-0.752716	-0.452423
0.210876	-0.580139	-0.487823
0.215759	-0.416565	-0.462341
0.223846	-0.286255	-0.475006
0.182343	-0.054474	-0.471497
0.142365	0.135956	-0.473938
0.105591	0.401917	-0.480652
0.047455	0.562439	-0.481110
0.003662	0.705414	-0.482330
-0.045166	0.944977	-0.486298
-0.099030	1.160431	-0.479279
-0.151215	1.357269	-0.500946
-0.139618	1.558228	-0.484161
-0.096588	1.661377	-0.493927
-0.127411	1.767120	-0.492249
-0.146027	1.772919	-0.495453
-0.212402	1.651917	-0.497589
-0.269775	1.437073	-0.482178
-0.308228	1.012726	-0.487366
-0.312195	0.523834	-0.505524
-0.334015	0.054474	-0.495911
-0.395050	-0.321808	-0.492249
-0.411377	-0.675964	-0.499878
-0.428772	-0.943146	-0.493927
-0.426331	-1.124878	-0.484924
-0.372467	-1.277008	-0.498505
-0.288696	-1.450500	-0.489349
-0.202026	-1.457062	-0.475006
-0.107880	-1.439972	-0.477142
0.008240	-1.454163	-0.461121
0.099640	-1.421051	-0.437622
0.168762	-1.461334	-0.443878
0.217133	-1.518555	-0.428925
0.189056	-1.597443	-0.447540
0.131226	-1.669464	-0.439301
0.072327	-1.764221	-0.443573
0.014648	-1.819458	-0.422821
-0.023499	-1.888885	-0.425873
-0.053711	-1.964569	-0.424500
-0.078735	-2.016144	-0.396576
-0.099030	-2.050781	-0.386353
-0.058441	-2.061005	-0.398254
0.096283	-2.056427	-0.370483
0.524750	-2.048340	-0.369415
1.158142	-2.055359	-0.374756
1.313477	-2.020874	-0.382690
0.780945	-1.971130	-0.323334
-0.154724	-1.945190	-0.304108
-1.199341	-1.986542	-0.339966
-2.079773	-1.955261	-0.320129
-2.477112	-1.928101	-0.323486
-2.358093	-1.942444	-0.321503
-1.786957	-1.893311	-0.321808
-0.952606	-1.836243	-0.297394
0.027924	-1.830444	-0.323639
0.951080	-1.835175	-0.268402
1.660461	-1.815033	-0.277710
2.130737	-1.783905	-0.288544
2.245636	-1.763458	-0.275269
2.091370	-1.854553	-0.269165
1.658630	-1.810608	-0.261383
0.972290	-1.760101	-0.239868
0.145111	-1.825562	-0.238953
-0.589905	-1.764679	-0.248718
-1.148071	-1.779327	-0.251160
-1.502838	-1.769714	-0.250854
-1.638947	-1.720581	-0.255890
-1.554413	-1.772614	-0.232697
-1.333008	-1.793365	-0.258484
-1.082458	-1.730957	-0.249786
-0.771179	-1.776581	-0.263519
-0.461273	-1.788788	-0.259857
-0.267792	-1.794434	-0.263824
-0.100861	-1.735687	-0.251617
0.135651	-1.773071	-0.254974
0.357819	-1.795807	-0.253601
0.573883	-1.765900	-0.259399
0.719147	-1.768646	-0.229645
0.763702	-1.804047	-0.238800
0.691528	-1.756287	-0.206146
0.460510	-1.716461	-0.208588
0.169830	-1.752167	-0.195618
-0.125580	-1.778107	-0.193481
-0.446320	-1.838837	-0.200195
-0.625305	-1.813354	-0.195770
-0.687256	-1.780396	-0.194092
-0.548401	-1.768188	-0.160217
-0.254364	-1.808167	-0.134735
0.136414	-1.823425	-0.141907
0.578918	-1.800232	-0.143127
0.966949	-1.741180	-0.111847
1.283417	-1.717529	-0.062256
1.387177	-1.724396	-0.071716
1.217804	-1.721497	-0.032654
1.002197	-1.753082	-0.021515
0.601196	-1.758118	-0.025024
0.136108	-1.763153	0.010529
-0.274200	-1.772003	0.032959
-0.699005	-1.774597	0.022583
-1.006622	-1.773376	0.041656
-1.146393	-1.793365	0.072479
-1.187439	-1.808624	0.045471
-1.160583	-1.820831	0.057068
-1.076660	-1.809845	0.064545
-0.939789	-1.788330	0.096283
-0.838013	-1.782684	0.111542
-0.741425	-1.797943	0.122681
-0.624237	-1.797638	0.140076
-0.544586	-1.810455	0.194397
-0.434113	-1.812744	0.222778
-0.300903	-1.778412	0.254364
-0.142365	-1.760559	0.269470
-0.031281	-1.777496	0.304871
0.108185	-1.747131	0.347443
0.223846	-1.723938	0.392303
0.349731	-1.747589	0.445251
0.307159	-1.739960	0.484467
0.281372	-1.726837	0.561371
0.240021	-1.714935	0.572815
0.167084	-1.699982	0.650330
0.081635	-1.687012	0.710907
-0.022736	-1.696014	0.769501
-0.153351	-1.648102	0.838013
-0.273743	-1.663513	0.880127
-0.399933	-1.671600	0.980072
-0.470123	-1.717224	1.049957
-0.453644	-1.704865	1.181793
-0.408478	-1.658173	1.210632
-0.287323	-1.666260	1.273499
-0.176392	-1.665497	1.408844
-0.027771	-1.675110	1.487732
0.084839	-1.711731	1.532898
0.189514	-1.712189	1.591492
0.284882	-1.714935	1.657410
0.359802	-1.683502	1.774445
0.364532	-1.620789	1.859589
0.374908	-1.603241	1.915588
0.321655	-1.660004	1.988220
0.304718	-1.665344	2.047424
0.249481	-1.626892	2.142944
0.232697	-1.568756	2.228241
0.136261	-1.562500	2.293091
0.119171	-1.615143	2.357178
0.003204	-1.630859	2.398224
-0.086060	-1.619415	2.451019
-0.144043	-1.621399	2.507324
-0.121460	-1.677704	2.590027
-0.181274	-1.719513	2.637634
-0.046539	-1.661682	2.701111
-0.017090	-1.624146	2.705536
0.064545	-1.648102	2.698212
0.116882	-1.679077	2.711029
0.104523	-1.658478	2.709045
0.116882	-1.642456	2.701111
0.068665	-1.622009	2.710876
0.059967	-1.655884	2.716064
0.021362	-1.643982	2.712402
-0.031891	-1.600800	2.708588
-0.098114	-1.551361	2.712402
-0.131836	-1.563110	2.715149
-0.093994	-1.576080	2.704620
-0.114899	-1.556854	2.714844
-0.132904	-1.582794	2.719574
-0.170441	-1.595154	2.720642
-0.135040	-1.563873	2.713013
-0.132294	-1.546478	2.713165
-0.119019	-1.589050	2.715302
-0.100708	-1.599426	2.722168
-0.122986	-1.583405	2.715607
-0.109100	-1.590424	2.701721
-0.074310	-1.585541	2.708130
-0.101624	-1.589508	2.715302
-0.128174	-1.573181	2.704468
-0.161438	-1.535492	2.715912
-0.186310	-1.568604	2.711029
-0.200195	-1.563416	2.714691
-0.222931	-1.557770	2.709503
-0.250092	-1.583557	2.709808
-0.269623	-1.620941	2.702179
-0.328979	-1.592865	2.714996
-0.369110	-1.560974	2.716980
-0.395813	-1.567230	2.714691
-0.389404	-1.558075	2.711487
-0.374756	-1.568604	2.715454
-0.366058	-1.605988	2.709961
-0.348511	-1.548615	2.713470
-0.265045	-1.543579	2.717133
-0.184174	-1.585693	2.714081
-0.081940	-1.528931	2.720795
0.010223	-1.513824	2.720032
0.108337	-1.496735	2.717743
0.172577	-1.443176	2.719727
0.239868	-1.477203	2.706909
0.238037	-1.455841	2.720795
0.214081	-1.432800	2.718964
0.123749	-1.450653	2.702026
0.043030	-1.409760	2.711029
-0.018463	-1.445160	2.713318
-0.036316	-1.403351	2.705688
-0.051727	-1.389313	2.714844
-0.053864	-1.405487	2.720032
-0.010223	-1.383514	2.705994
0.032501	-1.411133	2.707367
0.112915	-1.381836	2.707672
0.172729	-1.405334	2.709503
0.217896	-1.363220	2.717438
0.175934	-1.363831	2.711487
0.143280	-1.334839	2.720032
0.129395	-1.316681	2.715912
0.083466	-1.324768	2.715454
0.019836	-1.320801	2.704773
-0.070343	-1.324005	2.712097
-0.147705	-1.325684	2.706909
-0.183105	-1.322937	2.714691
-0.182648	-1.277618	2.718658
-0.164032	-1.285095	2.706146
-0.153656	-1.240692	2.720642
-0.168610	-1.266174	2.718353
-0.163269	-1.257324	2.713318
-0.138092	-1.256409	2.715302
-0.121918	-1.240845	2.700653
-0.098267	-1.192932	2.716675
-0.108490	-1.170349	2.709045
-0.168762	-1.153412	2.703552
-0.248413	-1.130676	2.713318
-0.302887	-1.108093	2.716522
-0.288544	-1.071777	2.716980
-0.266724	-1.095276	2.719574
-0.239716	-1.093597	2.709198
-0.193329	-1.083527	2.702179
-0.125122	-1.080322	2.718201
-0.103760	-1.101685	2.714996
-0.071259	-1.072540	2.709503
-0.065002	-1.069794	2.725677
-0.060577	-1.030121	2.707672
-0.071564	-1.002655	2.712097
-0.115967	-1.026154	2.720490
-0.137634	-1.029053	2.704926
-0.112152	-1.009979	2.708282
-0.104675	-0.988922	2.716522
-0.115662	-0.970917	2.710114
-0.077667	-0.959167	2.722626
-0.010223	-0.896759	2.711029
0.024567	-0.891266	2.712402
0.072479	-0.893250	2.711182
0.119476	-0.893250	2.700500
0.109558	-0.899353	2.719421
0.056458	-0.880280	2.716217
0.035706	-0.850830	2.694244
0.052185	-0.865784	2.703705
0.080566	-0.878601	2.677155
0.107117	-0.859222	2.616425
0.117340	-0.850220	2.609253
0.074310	-0.856171	2.604675
0.010986	-0.850830	2.538757
-0.043335	-0.833130	2.516174
-0.080109	-0.837860	2.507477
-0.133057	-0.831451	2.475891
-0.146637	-0.852509	2.438507
-0.126801	-0.847015	2.415771
-0.149078	-0.835724	2.386475
-0.130310	-0.853119	2.366638
-0.124207	-0.823212	2.372437
-0.103912	-0.819092	2.341461
-0.087128	-0.813293	2.329559
-0.086823	-0.859985	2.311859
-0.119476	-0.855103	2.273560
-0.107422	-0.856628	2.256317
-0.021667	-0.878448	2.235107
0.005493	-0.890961	2.213745
-0.003662	-0.883636	2.196045
-0.049438	-0.902405	2.161102
-0.113831	-0.891266	2.150269
-0.162811	-0.881042	2.150421
-0.213623	-0.865479	2.106934
-0.241394	-0.890198	2.097321
-0.234070	-0.898437	2.078705
-0.231171	-0.911407	2.052612
-0.215302	-0.922394	2.027893
-0.180359	-0.935669	1.982574
-0.145264	-0.962372	1.978302
-0.117035	-0.980377	1.979218
-0.067596	-0.992889	1.950226
-0.012207	-1.042938	1.942291
0.024872	-1.088715	1.918793
0.025635	-1.091461	1.879425
0.015106	-1.127319	1.858215
-0.047455	-1.159058	1.867065
-0.056915	-1.147766	1.838837
-0.100555	-1.206055	1.787872
-0.109406	-1.194153	1.784821
-0.108185	-1.211700	1.760101
-0.075989	-1.279449	1.729431
-0.070038	-1.269226	1.715698
-0.058136	-1.302643	1.699219
-0.071716	-1.307220	1.661224
-0.098419	-1.344757	1.663666
-0.093689	-1.336212	1.629486
-0.067291	-1.357727	1.614227
-0.042725	-1.391144	1.612244
-0.022430	-1.450958	1.577911
-0.001831	-1.473999	1.555786
-0.005798	-1.439667	1.535034
-0.082245	-1.540527	1.493225
-0.130310	-1.552582	1.496277
-0.167084	-1.539001	1.442566
-0.180054	-1.539459	1.435089
-0.218353	-1.592560	1.401215
-0.227051	-1.611938	1.398773
-0.197601	-1.648102	1.380310
-0.166931	-1.698608	1.369781
-0.134277	-1.685944	1.339264
-0.139618	-1.684265	1.351624
-0.105591	-1.657104	1.291962
-0.033417	-1.593628	1.304779
0.005493	-1.641541	1.274261
0.020599	-1.683502	1.253815
0.005798	-1.721191	1.268768
-0.011444	-1.740570	1.195068
-0.032959	-1.775360	1.216583
-0.069580	-1.767120	1.187592
-0.086517	-1.804962	1.213684
-0.109100	-1.843109	1.126099
-0.096283	-1.798096	1.174774
-0.107574	-1.764679	1.118317
-0.093079	-1.741791	1.137085
-0.098114	-1.738892	1.096497
-0.088348	-1.719818	1.109009
-0.061798	-1.743469	1.085663
-0.037537	-1.753387	1.087189
-0.042419	-1.762695	1.075897
-0.042572	-1.806183	1.047363
-0.052185	-1.793518	1.046295
-0.042572	-1.785278	1.016998
-0.008240	-1.816559	1.030884
-0.001068	-1.820679	1.014252
0.071259	-1.852112	1.035767
0.114441	-1.861725	0.980835
0.142212	-1.899261	1.009674
0.115051	-1.916046	0.959625
0.081940	-1.924744	0.987396
-0.014954	-1.920624	0.920258
-0.056610	-1.914520	0.964203
-0.124664	-1.956635	0.910950
-0.164337	-2.009583	0.917358
-0.200195	-1.967773	0.897980
-0.176392	-1.937103	0.885315
-0.120392	-1.936493	0.910187
-0.085602	-1.975708	0.846252
-0.062714	-1.993408	0.857697
-0.070038	-1.956787	0.800018
-0.021973	-1.910095	0.812378
0.006104	-1.858826	0.776215
0.016632	-1.825409	0.739746
-0.042572	-1.803741	0.764008
-0.075378	-1.805878	0.692902
-0.132599	-1.783447	0.669708
-0.195312	-1.804199	0.669250
-0.229950	-1.810760	0.621796
-0.230103	-1.811829	0.582275
-0.239563	-1.801910	0.607147
-0.285187	-1.786346	0.581970
-0.360565	-1.806641	0.492249
-0.440063	-1.840057	0.471344
-0.496674	-1.862946	0.473938
-0.464630	-1.898193	0.462341
-0.494385	-1.930389	0.413361
-0.653076	-1.936188	0.350342
-0.663147	-1.917267	0.278625
-0.388947	-1.862946	0.246277
0.074921	-1.837463	0.214996
0.621490	-1.829834	0.164185
0.939331	-1.847992	0.135040
1.081085	-1.846008	0.121613
1.119690	-1.848755	0.073395
1.256714	-1.890869	0.057983
1.408234	-1.906281	-0.008698
1.312408	-1.927185	-0.105438
0.959320	-1.954193	-0.131836
0.383453	-1.991272	-0.106201
-0.305176	-2.004547	-0.160217
-0.885162	-1.990662	-0.281982
-1.417542	-1.979065	-0.209351
-1.750793	-2.029572	-0.354767
-1.918640	-2.062073	-0.359039
-1.848907	-2.044678	-0.403290
-1.574402	-2.004547	-0.400238
-1.079407	-1.924591	-0.496368
-0.556183	-1.864319	-0.455933
-0.072479	-1.849213	-0.576630
0.338593	-1.861725	-0.536041
0.644073	-1.873322	-0.556793
0.850525	-1.902008	-0.650177
0.933075	-1.926727	-0.570679
0.889130	-1.956940	-0.589447
0.789032	-1.947327	-0.673218
0.604858	-1.917877	-0.634918
0.311584	-1.927948	-0.597229
0.004120	-1.907806	-0.654755
-0.315094	-1.944122	-0.704193
-0.522614	-1.974640	-0.624542
-0.658112	-2.000580	-0.613556
-0.767670	-1.998444	-0.668640
-0.859070	-1.952972	-0.651550
-0.868835	-1.968536	-0.580139
-0.742035	-2.024536	-0.631714
-0.599060	-2.014008	-0.697174
-0.399628	-1.974335	-0.641632
-0.163422	-2.026062	-0.620117
0.073853	-2.086945	-0.701141
0.307465	-2.016144	-0.713959
0.513153	-1.960907	-0.638428
0.604095	-1.980438	-0.636749
0.651245	-1.964874	-0.700989
0.629883	-1.905518	-0.711975
0.540771	-1.908875	-0.677490
0.426483	-1.897736	-0.653992
0.309753	-1.889343	-0.674438
0.173340	-1.896515	-0.714569
0.051422	-1.933441	-0.724182
-0.055847	-1.981812	-0.675659
-0.157013	-1.958160	-0.647125
-0.212402	-1.941071	-0.678558
-0.314636	-1.916351	-0.725861
-0.399017	-1.905060	-0.769348
-0.359802	-1.965179	-0.706024
-0.309296	-2.035217	-0.653229
-0.301971	-2.032623	-0.663910
-0.232544	-1.972351	-0.687408
-0.114441	-1.995392	-0.685272
-0.056305	-2.081909	-0.739594
0.010071	-2.137299	-0.740356
0.074463	-2.049103	-0.703278
0.044708	-2.054291	-0.655975
0.001373	-2.099457	-0.670471
-0.028992	-2.055511	-0.689240
-0.069427	-1.972351	-0.717316
-0.080261	-1.931000	-0.740662
-0.124512	-1.881104	-0.719757
-0.187225	-1.877136	-0.671692
-0.162354	-1.903839	-0.636139
-0.143738	-1.887665	-0.686951
-0.085297	-1.896057	-0.726318
-0.073700	-1.874237	-0.651398
-0.101013	-1.894531	-0.607758
-0.101013	-1.878357	-0.669098
-0.097198	-1.839447	-0.688477
-0.100861	-1.862030	-0.627136
-0.127563	-1.912994	-0.600281
-0.146637	-1.959076	-0.686493
-0.091705	-1.972351	-0.629425
-0.049896	-1.959534	-0.587006
-0.013733	-1.938934	-0.655670
-0.015717	-1.926575	-0.620270
-0.070648	-1.923828	-0.581207
-0.128021	-1.940613	-0.676117
-0.143585	-2.007446	-0.572357
-0.165558	-1.990356	-0.644379
-0.181122	-1.938019	-0.640869
-0.173035	-1.967926	-0.576019
-0.150299	-1.983185	-0.674896
-0.061951	-1.995697	-0.564117
-0.007782	-1.979065	-0.638428
0.028076	-1.918488	-0.605774
0.041351	-1.885834	-0.553131
0.031738	-1.900177	-0.628967
-0.025024	-1.917572	-0.553436
-0.075226	-1.940613	-0.653687
-0.104523	-1.962433	-0.549011
-0.082397	-1.972198	-0.632935
-0.067291	-1.939545	-0.520630
-0.043030	-1.946259	-0.632629
-0.036621	-1.992035	-0.509338
-0.007019	-2.047119	-0.609283
-0.012054	-2.032928	-0.519104
0.003357	-1.988831	-0.624084
-0.001678	-2.063141	-0.492706
-0.064850	-2.084351	-0.590210
-0.074463	-2.047424	-0.510101
-0.071869	-2.047577	-0.539093
-0.085144	-2.116547	-0.522766
-0.143127	-2.047272	-0.526428
-0.163574	-2.002563	-0.589447
-0.129700	-2.061157	-0.472412
-0.123291	-1.972809	-0.575714
-0.120392	-1.913757	-0.463257
-0.105743	-1.923981	-0.567474
-0.085602	-1.944427	-0.493622
-0.029602	-1.979828	-0.526276
-0.036469	-1.955872	-0.565338
-0.005646	-1.903534	-0.510559
0.005798	-1.851196	-0.583038
0.034180	-1.893921	-0.480042
-0.014496	-1.896820	-0.583649
-0.045776	-1.907959	-0.473480
-0.078125	-1.938171	-0.587616
-0.069122	-2.003021	-0.477600
-0.079193	-1.987152	-0.587463
-0.044250	-1.955109	-0.499725
-0.049744	-1.959686	-0.605927
-0.041046	-1.995544	-0.519867
-0.071106	-1.995239	-0.606842
-0.088959	-2.011566	-0.539398
-0.133972	-1.928101	-0.583038
-0.119629	-1.933136	-0.602112
-0.116730	-1.986847	-0.533600
-0.073090	-2.033234	-0.632477
-0.067902	-2.019196	-0.571136
-0.071716	-1.984406	-0.581055
-0.131683	-1.978607	-0.635223
-0.146637	-2.045441	-0.575256
-0.149078	-2.057800	-0.587311
-0.136719	-2.026520	-0.665131
-0.124817	-2.032776	-0.599670
-0.075989	-2.088013	-0.572510
-0.050812	-2.056122	-0.650787
-0.028839	-2.009125	-0.680389
-0.063629	-2.057495	-0.651855
-0.093536	-1.993713	-0.607147
-0.112305	-1.903534	-0.617828
-0.114441	-1.979370	-0.673828
-0.143127	-2.014618	-0.707550
-0.174255	-2.008514	-0.722656
-0.175171	-2.011719	-0.689697
-0.143280	-2.047577	-0.713196
-0.093231	-1.946106	-0.692902
-0.060120	-1.992035	-0.683746
-0.051270	-2.016144	-0.672302
-0.012665	-1.943817	-0.670166
0.003510	-2.014465	-0.675201
-0.005341	-2.026062	-0.690155
-0.033875	-2.053680	-0.679932
-0.098724	-2.041168	-0.704193
-0.117950	-2.015686	-0.709381
-0.085144	-2.052002	-0.727386
0.017090	-2.028656	-0.716248
0.088959	-2.055359	-0.719452
0.071106	-2.027435	-0.743713
0.013428	-1.972961	-0.756531
-0.039673	-1.937103	-0.784149
-0.069427	-2.021332	-0.795746
-0.104828	-1.986084	-0.824890
-0.071869	-1.976471	-0.811310
-0.058441	-1.977539	-0.789642
-0.038300	-1.938019	-0.778809
-0.012054	-2.018433	-0.809784
-0.000763	-1.950989	-0.848083
0.013275	-2.027740	-0.864868
0.034790	-2.029114	-0.825806
-0.010071	-1.988373	-0.822754
-0.065308	-2.034760	-0.855103
-0.112305	-2.000885	-0.880127
-0.120087	-2.039490	-0.859070
-0.108490	-2.052460	-0.892334
-0.125122	-1.978149	-0.903473
-0.137787	-2.054901	-0.893555
-0.116882	-2.021790	-0.930786
-0.091248	-2.015533	-0.919342
-0.065002	-2.056427	-0.901642
-0.075836	-2.048645	-0.923462
-0.117645	-2.006378	-0.933228
-0.134583	-2.059784	-0.923615
-0.170746	-2.024994	-0.965271
-0.192413	-2.022247	-0.940094
-0.227356	-2.084961	-0.975800
-0.212555	-2.046204	-0.964661
-0.166016	-2.100830	-0.974274
-0.171509	-2.079620	-0.984039
-0.178070	-2.036285	-0.982819
-0.144958	-2.121887	-0.990906
-0.068817	-2.106476	-1.002655
0.009918	-2.083435	-1.027527
0.041351	-2.145691	-1.037750
0.023804	-2.059174	-1.036682
-0.029755	-2.060852	-1.047974
-0.077515	-2.076111	-1.046906
-0.121613	-2.028351	-1.064148
-0.134735	-2.058563	-1.055908
-0.140991	-1.972656	-1.060791
-0.130615	-1.934052	-1.054840
-0.140686	-1.893005	-1.072083
-0.186005	-1.980743	-1.063538
-0.249481	-1.946411	-1.108551
-0.247955	-2.041016	-1.100464
-0.234985	-1.988983	-1.091309
-0.189362	-2.087097	-1.083679
-0.119324	-1.999512	-1.104279
-0.076904	-2.093353	-1.116180
-0.040436	-2.017517	-1.117249
0.044098	-2.083740	-1.117554
0.108490	-2.017822	-1.119232
0.123749	-2.002716	-1.121521
0.163269	-2.064819	-1.105194
0.159912	-2.011108	-1.121216
0.153961	-2.059631	-1.135101
0.104370	-2.071686	-1.117859
0.077057	-1.968842	-1.118622
0.002899	-1.999054	-1.132050
-0.066071	-2.091522	-1.126709
-0.113220	-2.083588	-1.141205
-0.146027	-2.017059	-1.166077
-0.126343	-2.039795	-1.134491
-0.120850	-2.078552	-1.137848
-0.110016	-2.111206	-1.146393
-0.121918	-2.065887	-1.185913
-0.069885	-2.048187	-1.121521
-0.044250	-2.021790	-1.152496
-0.012970	-2.068939	-1.187439
0.001526	-2.112732	-1.192627
-0.019684	-2.088470	-1.151123
-0.050201	-2.065582	-1.176147
-0.097656	-2.068329	-1.166840
-0.082245	-2.093353	-1.165619
-0.086365	-2.147217	-1.214752
-0.077820	-2.152863	-1.158447
-0.078125	-2.087250	-1.163177
-0.089722	-2.040558	-1.214600
-0.080719	-2.019348	-1.217499
-0.087738	-2.027283	-1.161652
-0.104065	-2.093811	-1.161194
-0.140076	-2.126770	-1.212616
-0.153809	-2.140045	-1.206207
-0.153503	-2.111053	-1.177216
-0.169220	-2.053375	-1.172943
-0.170593	-2.115326	-1.201935
-0.144043	-2.165527	-1.200256
-0.129242	-2.184143	-1.203308
-0.170441	-2.103424	-1.200409
-0.179291	-2.132568	-1.188202
-0.171814	-2.166443	-1.173553
-0.131378	-2.162781	-1.150970
-0.068512	-2.136078	-1.150513
-0.081177	-2.103271	-1.167755
-0.046844	-2.129517	-1.154175
-0.069122	-2.126923	-1.166077
-0.055389	-2.101593	-1.152191
-0.057526	-2.107086	-1.143188
-0.080872	-2.083282	-1.177216
-0.082703	-2.043762	-1.183777
-0.054169	-1.994781	-1.136627
-0.060730	-2.020721	-1.133881
-0.094299	-2.083130	-1.178131
-0.102234	-2.124939	-1.174011
-0.100861	-2.137604	-1.162109
-0.104523	-2.108154	-1.164398
-0.081024	-2.050018	-1.161957
-0.110931	-2.013092	-1.150513
-0.084839	-1.971436	-1.149902
-0.080719	-1.953430	-1.141510
-0.056458	-1.990509	-1.127472
-0.082855	-2.026062	-1.148834
-0.053711	-2.036743	-1.137390
-0.057068	-2.077789	-1.120911
-0.034943	-2.083282	-1.134033
-0.000916	-2.069092	-1.124268
-0.030060	-2.049561	-1.136169
-0.050049	-2.044983	-1.123657
-0.081635	-2.044983	-1.122437
-0.026093	-2.064362	-1.122284
-0.000458	-2.089539	-1.108551
-0.024261	-2.119141	-1.073151
-0.030518	-2.083282	-1.050415
-0.053558	-2.045441	-1.063080
-0.031281	-2.106781	-1.061249
-0.018616	-2.089233	-1.058960
-0.030212	-2.024078	-1.069946
-0.017548	-2.062225	-1.067657
-0.002136	-2.073517	-1.075745
-0.021210	-2.073517	-1.045532
-0.046692	-2.073669	-1.054840
-0.027313	-2.108765	-1.058655
0.010834	-2.080536	-1.065826
0.005188	-2.097168	-1.074066
-0.086365	-2.141113	-1.081848
-0.127869	-2.151947	-1.056824
-0.128326	-2.159882	-1.008606
-0.147552	-2.146301	-1.009216
-0.142517	-2.127533	-1.017761
-0.152588	-2.107239	-1.002045
-0.138702	-2.132721	-0.991974
-0.198822	-2.149658	-0.996399
-0.183105	-2.144623	-0.979919
-0.172424	-2.106323	-1.002655
-0.117340	-2.101135	-1.005707
-0.066528	-2.088623	-1.011200
-0.038452	-2.090302	-1.013489
-0.017548	-2.079010	-0.990143
-0.050964	-2.065430	-0.946198
-0.107880	-2.093353	-0.963287
-0.157318	-2.105713	-0.940704
-0.232086	-2.068634	-0.936127
-0.317841	-2.059937	-0.929260
-0.315552	-2.104187	-0.919342
-0.276337	-2.090759	-0.915070
-0.146637	-2.069550	-0.906219
-0.064240	-2.103882	-0.921936
0.027008	-2.118835	-0.907745
0.065613	-2.108459	-0.902710
0.071106	-2.073975	-0.897064
0.070038	-2.083588	-0.888672
0.061188	-2.082520	-0.883026
0.023804	-2.074280	-0.877228
0.020447	-2.114868	-0.862579
0.021515	-2.107849	-0.842743
-0.005035	-2.048798	-0.824280
-0.023193	-2.083740	-0.832367
-0.054626	-2.108307	-0.823517
-0.113525	-2.102966	-0.827179
-0.120087	-2.101135	-0.829620
-0.128632	-2.104187	-0.835114
-0.132599	-2.144928	-0.841980
-0.153351	-2.166748	-0.842133
-0.126648	-2.130737	-0.831757
-0.107880	-2.105103	-0.799408
-0.103912	-2.186890	-0.774384
-0.130615	-2.122498	-0.764008
-0.139771	-2.196655	-0.769653
-0.140076	-2.200928	-0.817871
-0.091095	-2.125244	-0.820618
-0.043488	-2.096710	-0.821075
-0.016632	-2.107849	-0.799408
-0.043182	-2.117157	-0.783081
-0.073700	-2.078705	-0.760193
-0.059967	-2.093506	-0.808868
-0.047150	-2.111359	-0.848083
-0.038300	-2.113495	-0.827942
-0.061188	-2.123108	-0.796814
-0.133057	-2.116852	-0.796814
-0.097351	-2.117310	-0.844421
-0.164185	-2.119598	-0.829773
-0.130157	-2.135773	-0.813599
-0.097504	-2.133942	-0.826263
-0.136108	-2.134705	-0.865936
-0.072784	-2.164612	-0.830231
-0.050201	-2.114105	-0.779572
-0.015717	-2.070007	-0.833588
-0.036316	-2.102966	-0.829926
-0.072174	-2.091217	-0.799103
-0.072937	-2.056427	-0.842438
-0.065002	-2.061005	-0.856476
-0.057373	-2.133179	-0.835266
-0.072021	-2.158051	-0.829926
-0.110626	-2.081909	-0.846100
-0.090485	-2.114258	-0.813599
-0.070648	-2.152557	-0.800323
-0.057526	-2.096710	-0.838623
-0.148926	-2.111359	-0.832825
-0.133057	-2.168274	-0.794983
-0.030670	-2.141266	-0.831909
-0.009918	-2.076721	-0.852203
-0.003052	-2.104340	-0.807800
-0.060883	-2.151794	-0.821686
-0.101471	-2.113647	-0.870209
-0.091858	-2.113647	-0.822449
-0.045319	-2.171021	-0.845184
-0.009613	-2.141266	-0.871277
0.012054	-2.092590	-0.825806
-0.013580	-2.101746	-0.866699
-0.015106	-2.132263	-0.871124
-0.023346	-2.102509	-0.818634
-0.071106	-2.044983	-0.867157
-0.088959	-2.114716	-0.855865
-0.069580	-2.132568	-0.850067
-0.081787	-2.088776	-0.891571
-0.057678	-2.098694	-0.832367
-0.100555	-2.145996	-0.904694
-0.118103	-2.095947	-0.863495
-0.133362	-2.082977	-0.909576
-0.156250	-2.159271	-0.855103
-0.113220	-2.118378	-0.872955
-0.109253	-2.083893	-0.862579
-0.042114	-2.136993	-0.899506
0.003662	-2.082672	-0.859222
0.016937	-2.059174	-0.892029
0.049896	-2.135315	-0.860443
0.057678	-2.108612	-0.852814
0.014801	-2.086334	-0.883942
0.008850	-2.148132	-0.830383
-0.022125	-2.135315	-0.877228
-0.074921	-2.062988	-0.824127
-0.088806	-2.146454	-0.858154
-0.097961	-2.146149	-0.805206
-0.109406	-2.100067	-0.822754
-0.088501	-2.155914	-0.867767
-0.066071	-2.082825	-0.832367
-0.065308	-2.151794	-0.856323
-0.097809	-2.146301	-0.858459
-0.110931	-2.078857	-0.840759
-0.106964	-2.100830	-0.862427
-0.080719	-2.035522	-0.838165
-0.059052	-2.037659	-0.806732
-0.102081	-2.139130	-0.833588
-0.088348	-2.094421	-0.843048
-0.087738	-2.086334	-0.811005
-0.085907	-2.140656	-0.827637
-0.067139	-2.076569	-0.839844
-0.054779	-2.117157	-0.834198
-0.020142	-2.124634	-0.791779
-0.030212	-2.049103	-0.793457
-0.047150	-2.094269	-0.809784
-0.066528	-2.126923	-0.822906
-0.089111	-2.040253	-0.830536
-0.041809	-2.071991	-0.824585
-0.004120	-2.088928	-0.811768
-0.021210	-2.033386	-0.812378
-0.064240	-2.016907	-0.821838
-0.182037	-2.071838	-0.836639
-0.254974	-2.017975	-0.844574
-0.284882	-2.008362	-0.831604
-0.275116	-2.046661	-0.844574
-0.208740	-1.966400	-0.841217
-0.155182	-1.932526	-0.814056
-0.066528	-2.028656	-0.806580
-0.042419	-2.008362	-0.799713
-0.017853	-1.951141	-0.807648
-0.035400	-2.023163	-0.817261
-0.043182	-2.019653	-0.813904
-0.054779	-1.903534	-0.841064
-0.058899	-1.847687	-0.834961
-0.100250	-1.862946	-0.806122
-0.134277	-1.903229	-0.842590
-0.136871	-1.885986	-0.837708
-0.112152	-1.864014	-0.831757
-0.046387	-1.847992	-0.843048
-0.016785	-1.816711	-0.843353
0.031738	-1.811676	-0.809784
-0.003052	-1.808777	-0.812531
-0.001068	-1.834564	-0.808563
