-0.037689	-0.026245	-0.022888
-0.037994	-0.025024	-0.022125
-0.036163	-0.025635	-0.024261
-0.038300	-0.025024	-0.022583
-0.037994	-0.027008	-0.021057
-0.040283	-0.024109	-0.021667
-0.035400	-0.024109	-0.021515
-0.039520	-0.026093	-0.023499
-0.037231	-0.027313	-0.023499
-0.039978	-0.026703	-0.021057
-0.037689	-0.026703	-0.023804
-0.039825	-0.025940	-0.023041
-0.039978	-0.027618	-0.020752
-0.039215	-0.028534	-0.020294
-0.037994	-0.024872	-0.023041
-0.039673	-0.027161	-0.023651
-0.040436	-0.027618	-0.024719
-0.041046	-0.028992	-0.022583
-0.040131	-0.027008	-0.024261
-0.037231	-0.025940	-0.021362
-0.037537	-0.024261	-0.021515
-0.038452	-0.027466	-0.023193
-0.039978	-0.028229	-0.025330
-0.038757	-0.027161	-0.022736
-0.036469	-0.025330	-0.021667
0.109863	0.152893	-0.041504
0.198364	-0.027771	-0.337067
0.242920	0.037079	-0.239716
0.268860	-0.150299	0.604248
-0.814514	0.513763	-0.982819
0.194244	-0.004425	1.313782
0.403290	-0.030365	-0.057526
1.148987	-0.232239	-0.461121
1.691895	-0.139160	-0.083313
0.578156	-0.305786	1.366577
1.594849	0.027771	0.445251
1.592865	-0.144653	0.093231
1.459503	-0.188293	-0.145111
0.017548	-0.209045	-0.984497
-1.090088	0.520172	-0.706329
-0.651245	0.646973	-0.394287
0.541840	0.077515	0.335693
1.324921	-0.324707	-0.483551
-1.506500	-0.251465	-1.654968
-0.463257	-0.209656	-0.247040
1.356506	-0.315552	-0.372620
-1.305389	0.206757	-1.000519
0.722046	0.536652	1.145477
0.301971	0.198822	0.277252
-0.509338	0.305634	0.737610
0.705109	-0.356903	-1.246338
-0.526886	0.253296	0.169830
0.267487	-0.359344	-0.364380
0.024414	-0.130005	0.773926
-1.504974	0.058136	-1.308136
0.550995	-0.619812	0.123444
-1.151581	-0.338745	-0.721741
-0.710907	0.155640	-1.002655
0.135193	-0.691681	-0.518799
-0.001984	-0.199890	0.236816
0.055847	0.606842	-0.282440
0.189362	0.755157	0.334015
0.144806	-0.806732	-0.884857
0.269928	-0.397491	-0.128021
-0.270538	-0.641785	-0.267487
-0.141449	-0.343933	0.806274
-0.095215	-0.245819	0.914459
-0.236511	0.247040	-0.503998
-0.148315	-0.288849	-0.796204
0.010223	-0.261383	-0.479736
0.560913	0.259857	-0.184784
0.113373	-0.370941	-0.544891
0.163422	0.645752	0.417328
-0.499878	-1.382599	-1.079407
-1.090698	-0.503082	-0.828705
-0.045929	0.230560	0.663300
1.004944	0.292664	-0.363617
0.198822	0.011292	-1.680908
-1.293488	-0.958252	-1.552277
-0.821228	-0.084686	0.219879
-0.524139	0.101929	-0.190887
-0.556641	-0.519257	-0.165405
0.551147	0.783691	0.468750
-0.877686	-0.899048	-0.968781
0.218658	0.200043	0.361481
-0.165710	0.432892	0.486603
0.146484	0.742035	-1.262054
0.834045	0.179901	0.449371
-0.171509	-0.022278	-0.870972
-0.047150	-0.086365	-0.048523
-0.002899	0.175323	0.348816
0.215912	-0.055237	0.550385
-0.205688	-0.084076	-0.616455
-0.184937	-0.184326	-1.354218
-0.031891	0.117493	-0.316315
-0.033722	-0.015869	0.267029
0.092316	0.062714	1.281586
0.079346	-0.113678	0.732727
-0.008850	-0.349274	0.034790
-0.038605	-0.388184	0.225525
-0.117187	1.026764	-0.569916
-0.449219	-1.642151	-0.516357
-0.281830	0.495300	0.809479
0.166016	-0.502167	-0.155029
-1.162872	-0.278168	-1.497345
0.831146	1.212311	0.149078
1.483307	1.251831	0.032806
-0.896759	0.715942	-0.101776
0.145264	-0.514984	-0.905457
-0.001831	-1.922150	-0.738831
-0.358582	-0.398407	-1.076813
0.094299	-0.196686	0.351410
0.935974	0.223999	-0.242920
0.554810	0.387726	-0.909576
1.790924	0.048981	1.005707
0.240173	0.228729	-0.184021
-0.554047	0.953064	1.560211
-1.014709	-2.123260	-1.913147
1.569061	0.412903	-0.654755
1.006012	1.838837	1.506805
-0.271149	-0.350647	-0.295258
0.053101	1.107788	0.914764
-1.356354	-0.839691	-0.751648
0.551758	1.135712	0.938263
-0.230255	-0.846405	-0.686493
1.278687	0.584412	0.123901
0.067596	0.173187	0.222473
0.021820	0.456696	0.363770
0.122223	-0.297089	-0.708008
-0.131226	-0.246735	0.196533
0.407562	0.083466	0.442963
-0.391998	0.246429	-0.107727
0.281830	-0.101318	0.740051
-0.454102	-0.512238	0.005493
-0.145569	0.152740	-0.410461
0.106964	0.042725	-0.338745
-0.069733	0.154114	-0.437927
0.073853	0.236053	-0.727844
-0.113831	0.269928	0.145721
-0.050354	-0.222168	0.473480
0.164948	1.049194	0.518951
-0.139771	-0.544586	-0.336609
0.482941	0.083160	-0.240479
0.259857	0.428619	0.038452
-0.246887	-0.003204	0.010681
-0.137177	-0.211182	0.632935
-0.372314	-0.608368	-1.041260
0.195923	0.083466	-0.369873
0.217438	0.545959	0.560913
-0.128937	-0.038147	-0.573425
-0.130310	-0.111389	0.337219
-0.729828	-0.526581	-0.641785
0.002899	0.272217	0.868530
0.046844	0.005493	-0.479279
-0.100098	0.023041	0.428314
0.128937	0.175476	0.763397
-0.019379	0.028534	-0.246124
-0.063171	-0.048981	0.395355
0.045166	0.019836	-0.367889
-0.052032	-0.074310	-0.330811
0.040131	0.017548	0.697479
-0.079498	0.080872	0.237274
0.017548	0.352325	-0.486450
0.007782	-0.047302	-0.420837
-0.414429	-0.043335	-0.841064
1.711884	2.061768	2.163086
1.145630	1.352234	1.593628
0.035553	-0.269928	-0.505829
-0.292664	0.032196	0.103455
-0.516205	-0.230865	0.221863
0.077362	-0.087128	-0.029755
1.905670	1.949310	1.987610
-0.883484	0.130463	-0.455933
1.940765	1.432495	2.197418
-0.725861	-0.689850	-0.619202
0.780792	2.026978	1.581421
-0.128174	-0.309296	-0.038757
0.073242	-0.376587	-0.438080
3.087769	3.153076	1.844330
0.016937	0.752563	0.930023
-2.744141	-0.498657	-0.776672
-0.039520	-0.600739	-0.368500
-0.125122	-0.374146	0.415039
-0.090485	0.169525	-0.138092
1.569519	2.113953	1.468964
0.706177	0.712585	-0.159912
1.784515	1.046143	0.937958
-2.514191	-0.942383	-0.610504
-0.057983	-0.606689	-0.375519
-1.610718	1.388855	0.818481
-2.182770	-1.885834	-0.243683
0.582733	-0.908508	0.652466
0.079651	-2.161560	0.135193
-1.273041	-0.881348	-1.109619
-0.641785	-2.183228	-0.429840
0.494232	0.181885	0.676575
-2.369995	-4.506989	-1.182861
0.138550	-1.771240	0.183258
0.027771	-0.078583	-0.175476
0.640411	0.705261	0.945740
-1.601257	-1.064301	-1.430817
0.791168	0.904999	-0.165863
-0.650940	-1.279602	-0.181122
1.444397	2.390289	1.536102
0.379181	0.438385	-0.184174
1.052856	2.274933	1.930542
1.841583	2.322845	1.692963
-0.705261	0.118103	-0.247498
-2.261353	-2.216797	-0.740051
-0.001984	-3.476868	0.487671
0.212402	-1.585999	-0.370636
0.872192	3.294373	1.195679
-1.033936	-0.921173	2.857513
-0.513763	3.869781	2.913513
-0.477142	3.592987	3.345032
-0.940552	2.477570	1.768799
0.005188	3.752289	3.896179
1.445923	3.533173	4.217072
-1.736908	3.261414	1.851959
-1.494598	1.797638	1.814728
2.290955	-0.065765	2.409821
-3.856049	-3.373871	-0.690155
1.749573	2.976227	3.186340
0.634460	-0.408173	2.188721
3.127136	0.248718	4.131012
2.374420	2.476044	1.574402
-0.576324	-2.017670	0.095978
2.929230	1.264648	2.760620
-1.779175	2.523804	2.008057
-1.301270	1.419525	0.990143
-1.970367	1.897736	0.670013
-3.369598	0.873413	1.421967
1.032257	0.980530	0.765839
-2.189789	0.916748	-2.193146
0.231018	3.451538	2.641907
0.460052	1.270447	2.620087
1.788483	2.124481	2.264709
-1.381226	1.337128	1.519775
0.715179	0.719757	1.514587
2.038422	1.351013	1.264038
-0.715790	1.634216	2.806091
0.094757	3.331909	0.911865
3.589478	1.098328	-0.508728
3.281250	3.148346	1.786041
1.991882	3.391113	3.885498
-0.859680	2.789001	3.427582
-3.387146	-0.373077	-0.785370
-1.305084	1.118469	2.437439
-0.659943	-0.568848	-0.328064
-2.540894	-1.910248	1.551056
-2.343445	-2.689667	0.431061
-0.618134	-0.255585	-0.821686
0.812378	-2.998199	0.096893
-1.777954	-2.739868	-1.527252
1.660919	0.965424	0.289459
2.581482	2.334747	-1.844940
2.345276	0.058136	3.018188
3.775787	-0.082397	0.553894
2.010345	-0.043488	2.638245
3.903809	4.078217	2.693939
2.324982	0.715332	3.059082
3.740845	4.583893	3.370819
0.527344	0.134735	2.542114
1.549072	0.035858	2.193604
0.077972	0.301361	2.874451
0.286560	-0.720215	3.294525
2.295074	1.135101	3.690033
-1.561279	-0.859222	1.144409
-0.308380	0.204163	0.170593
-0.281830	0.112610	2.513428
0.894470	0.513153	1.451416
1.947937	0.353394	-1.494598
-0.144196	0.515594	-0.507202
0.674133	-0.070953	2.337646
0.457001	0.266113	-0.527649
-0.479736	2.184753	2.513733
0.036011	0.625610	1.667328
0.092621	0.044098	1.952057
0.008240	-0.096588	1.412048
-0.000458	0.230255	0.686951
-0.009155	0.235748	-0.958710
0.124817	-0.628204	2.471466
-0.167389	0.061798	1.965790
0.106049	0.433502	0.814972
-0.166626	-0.006104	-0.507355
-0.285645	-0.257111	-1.277618
-0.271759	0.801239	2.055054
-0.434265	-0.783081	-0.886078
-0.747223	-0.504608	1.446838
-0.232544	0.662842	2.051697
-0.087433	0.547943	1.272278
-0.061035	0.090179	2.125092
0.120850	0.095978	-0.733948
-0.224304	0.101929	-1.016541
-0.032806	-0.369415	-0.608826
-0.093536	-0.046234	-0.924835
-0.178986	0.254211	0.013885
-0.098419	-0.324860	-0.327759
0.077972	-0.280457	-1.480103
0.114288	0.341339	-0.533295
-0.395050	0.459595	-0.085602
0.134888	-0.200348	-1.059723
0.074615	-0.261688	-1.204224
0.079346	0.180359	-0.462799
-0.245819	0.258789	-1.121216
0.080566	-0.073090	-0.465851
0.076447	0.851898	-0.090790
0.177002	-0.127869	-0.749969
0.057678	0.158386	-0.921021
-0.088348	0.384979	0.036011
0.068054	-0.146332	-0.626373
-0.140533	0.106049	0.180054
0.137634	0.555115	-0.918732
-0.122528	0.175629	-0.119171
-0.072174	-0.208282	-0.713043
0.059509	0.526123	-0.627441
-0.394287	-0.018616	-0.431671
0.220337	-0.035095	-0.583191
-0.526886	-0.051727	-0.787964
0.167694	0.444031	-0.524902
-0.004883	0.365143	-0.728302
-0.091705	-0.418854	-0.670624
-0.079651	0.142059	-0.181732
-0.276337	-0.348206	-0.712585
0.028992	0.698853	-0.010834
0.129089	0.694427	-0.414734
-0.167084	-0.216064	-0.497437
-0.191803	-0.063324	-0.537567
0.242462	-0.235901	-0.831451
-0.332489	-0.599670	-0.656586
-0.281525	-0.018921	-0.242004
0.152283	0.185699	-0.549774
-0.149078	-0.046692	-0.912781
-0.557861	0.223846	-0.222321
0.043335	0.731964	-0.057831
0.416107	0.533142	-0.816193
-0.147095	0.047455	-0.799713
-0.515594	-0.066681	-0.320129
-0.360565	0.376129	-0.309601
0.283966	0.435944	-0.242615
0.422058	0.453033	-0.329895
0.211487	-0.187988	-0.961914
-0.202179	-0.235138	-0.509949
-0.407867	-0.251312	-0.655670
-0.435944	0.200348	0.136108
-0.228119	0.732880	-0.136871
-0.128937	1.008606	-0.390625
-0.020294	0.727234	-0.383301
0.086670	0.149078	-0.687408
0.181122	-0.203400	-0.630646
0.320282	-0.251160	-0.775757
0.054016	-0.130310	-0.669098
0.079956	0.376434	-0.512238
0.219421	0.514069	-0.992737
0.135040	-0.263519	-0.707855
0.142670	-0.436707	-0.919495
0.286407	0.399170	-0.569458
0.137939	0.676270	-0.612183
0.275116	0.353699	-0.697021
0.301056	-0.081787	-0.337677
0.335541	-0.018005	-0.403595
0.258636	0.725098	-0.035858
-0.010223	0.766754	0.280304
-0.378418	-0.385132	-0.199890
-0.601959	-0.464020	-0.773315
-0.697479	0.131378	-0.573273
-0.466003	0.173187	-0.626831
-0.116577	-0.173645	-0.648193
0.064240	0.665131	-0.219879
-0.098877	0.497894	-0.000458
-0.129547	-0.813599	-0.449371
0.040283	0.500488	-0.914917
0.161133	-0.051727	-0.528412
-0.251007	0.617065	-0.226135
-0.378571	-0.063324	-0.703583
0.241547	-0.475616	-0.514069
0.177765	1.026611	0.084991
-0.265808	-0.319061	0.087280
0.101166	0.172729	-0.836182
0.013885	-0.161438	-0.532990
-0.054932	0.619965	-0.472565
-0.131683	-0.879974	-1.243591
0.004578	1.025848	-0.503082
0.178375	-0.656891	-0.715637
-0.429077	0.564423	-1.135406
0.390320	0.067596	-0.349884
-0.265656	-0.084534	-1.178131
-0.137787	0.466156	-0.573730
-0.222931	-0.343323	-0.878296
0.254059	0.536652	-0.763245
-0.812531	-0.574493	-0.324402
0.271454	0.644684	-0.496368
-0.235443	0.290222	0.094757
-0.499573	-0.410919	-0.186310
0.043335	0.243988	0.061035
-0.086823	0.592041	-0.737915
-0.658722	-0.682068	-0.850220
0.561523	0.276184	-0.406342
-1.004486	0.160065	-0.333710
0.726471	0.982819	0.440826
-0.662994	-0.335693	-1.081696
0.090027	-0.397797	-0.502014
0.552368	0.599060	0.025635
-0.911407	0.110626	-0.404205
0.450592	0.288086	-0.400543
0.612183	-0.169220	-0.471344
-0.686493	-0.762939	-0.252991
-0.159607	0.204315	-0.463409
0.577545	0.700531	-0.158691
-0.037994	0.147705	-0.476379
-0.515747	0.245819	-0.791779
0.012970	0.668640	0.542908
0.426941	0.245056	-0.909576
-0.509491	-0.173492	-0.587616
-0.775452	0.065002	-0.373383
0.452881	0.452576	-0.171204
0.077057	0.458069	0.143433
-0.407867	0.169983	-0.843506
-0.102081	-0.091095	-0.414581
-0.816650	0.108337	-0.940857
-0.503082	0.473022	0.019379
0.332642	0.648956	-0.354767
0.325775	0.796051	0.292816
-0.048065	0.748596	-0.222778
-0.168762	0.579834	-0.332336
-0.049896	0.228577	-0.182495
0.099487	-0.117340	-0.981903
0.151215	-0.492401	-0.182343
0.110626	-0.569916	-1.134949
-0.032806	-0.420227	-0.628815
-0.139618	-0.227203	-0.517578
-0.220947	-0.012665	-1.169586
-0.226593	0.243988	-0.283203
-0.185547	0.049286	-0.758514
-0.056763	-0.207672	-0.926208
0.087585	-0.435028	-0.028534
0.350647	-0.289764	-0.639496
0.545349	0.187073	-0.533752
0.597534	0.419617	0.349579
0.348969	0.507812	-0.230408
0.089111	0.284882	-0.806274
-0.253296	-0.135651	-0.207672
-0.531158	-0.564880	-0.406036
-0.523224	-0.486298	-0.921936
-0.126190	0.116577	-0.676880
0.142365	0.684204	0.233307
0.195007	0.023804	-0.057831
-0.155487	-0.112152	-0.869904
-0.188599	0.313263	-0.986938
0.097198	0.908661	-0.236816
0.120392	0.705872	0.040894
-0.193481	0.436096	-0.413513
-0.373840	0.954285	-0.651855
0.274506	1.384277	-0.557709
0.005646	1.454926	-0.682526
-0.126190	1.520538	-0.519257
0.599060	2.830658	0.198517
-0.166931	2.227936	-0.048370
-0.091095	2.254486	-0.262756
0.142517	2.463379	-0.095825
-0.557709	2.169037	-0.723114
0.022888	2.561340	-0.771332
-0.036774	2.715607	-0.758820
-0.488129	2.815399	-0.827789
-0.281219	2.859344	-0.660858
-0.254822	2.497253	-1.001892
0.177460	2.662048	-0.465698
-0.489960	1.767578	-0.980835
-0.246887	2.468719	-0.395203
-0.423737	2.381439	-0.797272
0.187988	3.158264	-0.198822
-0.217743	2.324677	-0.639496
0.088501	2.195129	-0.068970
0.230255	2.467041	-0.175629
0.160980	2.679596	-0.232391
0.204620	2.418365	-0.381622
0.288391	0.962372	-0.603333
0.542297	1.188507	-0.602570
0.156708	0.527344	-0.709229
0.222321	0.277405	-0.403595
0.180054	-0.036316	-0.191193
0.034637	-0.382080	-0.560913
0.210114	-0.475769	-0.729675
0.151367	-0.495300	-0.556335
0.015717	-0.778351	-0.375519
0.013275	-0.896149	-0.362701
-0.074005	-0.339508	-0.456085
-0.158691	-0.178375	-0.477448
-0.418396	-0.377655	-0.344849
-0.299072	-0.277557	-0.673523
-0.588684	0.032349	-0.138855
-0.995178	0.105896	-0.362244
-1.167297	0.102386	-0.430756
-1.121674	0.146179	-0.177460
-0.730591	0.156860	-0.719299
-0.876617	0.140228	-0.117187
-1.210785	0.119019	-0.729980
-1.090240	0.199585	-0.094147
-0.775757	0.252380	-0.593872
-0.380096	0.248260	-0.269012
-0.350189	0.171661	-0.360413
-0.092468	0.098267	-0.276642
0.241241	0.284271	-0.145874
0.735779	0.284424	-0.301361
1.323547	0.172424	-0.284576
1.328583	0.385132	-0.119324
0.908813	0.323944	-0.250092
0.668030	0.289154	-0.260010
0.728455	0.699158	-0.261078
0.185394	0.144196	-0.240631
0.668488	0.409088	-0.186615
0.976257	0.314178	-0.194702
2.031860	0.292358	-0.185852
2.159576	0.268097	-0.419769
1.889648	0.057220	-0.242767
1.577911	0.500031	-0.198059
0.186615	-0.078278	-0.471802
-0.665741	0.218964	-0.213623
-1.256866	0.246582	-0.208740
-2.143402	0.363312	-0.164490
-2.672577	0.289459	-0.106659
-2.730865	0.426941	-0.173645
-2.635345	0.255737	-0.182648
-2.566223	0.108795	-0.198669
-2.505188	0.313568	-0.376282
-1.988831	0.339203	-0.192413
-0.686646	0.382080	-0.193634
1.370544	0.442352	-0.105133
2.689972	0.191650	-0.188141
2.658539	0.236053	-0.167542
2.704010	0.618896	-0.422974
2.641754	0.275421	-0.147247
2.682190	0.318756	-0.154266
2.457123	0.211334	-0.122833
0.550537	0.108032	-0.127411
-0.528564	0.321045	-0.151520
-2.301483	0.318146	-0.147247
-2.581329	0.352020	-0.150452
-2.531891	0.532532	-0.148010
-2.476959	0.128784	-0.114441
-2.496033	0.273132	-0.114594
-2.544098	0.295258	-0.118713
-2.612000	0.287323	-0.043335
-2.221680	0.677948	-0.091553
-0.969696	0.229797	-0.068054
-0.047302	0.258331	-0.037689
1.132660	0.612030	-0.017700
1.634064	0.268250	0.017548
2.630463	0.387421	0.074310
2.748108	0.480499	0.032959
2.697144	0.209808	0.174255
2.755280	0.271454	0.322723
2.701874	0.707245	0.345612
2.340698	0.292358	0.453644
1.767578	0.372772	0.415039
0.640411	0.343475	0.671844
-0.376740	0.322571	0.397797
-0.793152	0.586548	0.666962
-1.915741	0.328064	0.869141
-2.243805	0.408478	1.012115
-2.295837	0.325317	0.765686
-2.562103	0.276337	0.825043
-2.520447	0.526886	1.768494
-1.984253	0.285034	1.130676
-1.962891	0.399170	1.734772
-1.775055	0.399628	1.053467
-0.884705	0.088654	1.979675
-0.383911	0.268097	1.878815
0.075531	0.301361	1.720123
0.739899	0.324554	1.782684
1.290131	0.359039	1.847229
1.504517	0.375519	1.901703
1.456146	0.350800	1.967468
1.202240	0.278320	2.021332
0.972290	0.340424	2.056274
0.742493	0.371246	2.106171
0.541382	0.385895	2.126770
0.411072	0.346527	2.185211
0.336304	0.308075	2.219543
0.186005	0.289764	2.266083
-0.083771	0.326996	2.328339
-0.291138	0.354004	2.317963
-0.441589	0.349274	2.357330
-0.595398	0.327606	2.364502
-0.579376	0.290833	2.359314
-0.483246	0.335693	2.368164
-0.246429	0.411682	2.371521
-0.004883	0.460815	2.370453
0.124969	0.434113	2.349091
0.022736	0.402222	2.356720
-0.069580	0.336609	2.341003
-0.056763	0.404663	2.300415
0.001068	0.404816	2.264557
0.177155	0.397339	2.252045
0.153961	0.372772	2.254944
-0.027008	0.332947	2.225800
-0.343781	0.344696	2.200775
-0.704346	0.408783	2.166901
-1.029968	0.483093	2.172089
-1.186981	0.393982	2.137909
-1.044159	0.346527	2.085571
-0.616913	0.342102	2.058563
-0.227814	0.397949	2.057343
0.157013	0.445862	2.030487
0.561829	0.472870	2.012329
0.991211	0.470581	2.019043
1.320038	0.402985	2.019806
1.379089	0.419464	1.999054
1.080170	0.464630	1.952972
0.693512	0.488434	1.924286
0.423279	0.448761	1.874084
0.173950	0.413818	1.826172
0.132599	0.356140	1.761627
0.303040	0.395508	1.698914
0.368500	0.420990	1.665344
0.003662	0.474091	1.625519
-0.422363	0.425415	1.577148
-0.487061	0.382080	1.543579
-0.397034	0.409851	1.551666
-0.336304	0.447540	1.562195
-0.142822	0.490417	1.574249
-0.068970	0.516205	1.628265
-0.279999	0.479736	1.687317
-0.685425	0.399323	1.751251
-1.297913	0.476837	1.811523
-1.897583	0.501709	1.871185
-2.227478	0.516815	1.929626
-2.262573	0.458374	1.981659
-1.918488	0.426941	2.050781
-1.299744	0.372772	2.108002
-0.548859	0.413666	2.193146
0.118713	0.484467	2.212677
0.625458	0.470428	2.228851
0.926514	0.430450	2.252045
1.088257	0.408325	2.234039
1.439819	0.430908	2.241211
1.913910	0.470276	2.237091
1.826172	0.543823	2.228546
1.354828	0.524292	2.224121
0.876923	0.486603	2.231598
0.158844	0.436859	2.201233
-0.548401	0.509796	2.180481
-0.712891	0.530243	2.149963
-0.499420	0.498657	2.086945
-0.138092	0.466766	2.073059
0.141144	0.429230	2.053528
0.414124	0.426331	1.983032
0.564575	0.470734	1.909790
0.458374	0.544128	1.854553
0.254669	0.480499	1.775360
-0.020294	0.463257	1.714630
-0.400848	0.464783	1.637115
-0.805969	0.522919	1.593781
-1.110840	0.579071	1.568756
-1.272278	0.612946	1.521149
-1.193848	0.571289	1.508331
-1.004639	0.505219	1.527557
-0.693207	0.553894	1.519928
-0.248566	0.619354	1.541595
0.190125	0.634003	1.594391
0.605621	0.584106	1.608734
0.819855	0.555725	1.648712
0.884705	0.547333	1.689606
0.806732	0.578918	1.735382
0.429230	0.612640	1.785431
-0.048218	0.646362	1.849060
-0.447388	0.570374	1.876373
-0.856934	0.549316	1.922150
-1.110840	0.591736	1.993103
-1.242218	0.679169	2.053223
-1.305847	0.715179	2.108307
-1.147156	0.736389	2.156067
-0.916748	0.722504	2.218018
-0.541077	0.641937	2.245941
0.073090	0.702667	2.223816
0.747223	0.731812	2.232666
1.301270	0.725403	2.266235
1.666107	0.650330	2.273560
1.630249	0.638733	2.296600
1.306915	0.625153	2.277527
0.888214	0.681000	2.303162
0.374603	0.759735	2.328033
-0.072632	0.721893	2.315216
-0.449066	0.682831	2.274628
-0.638580	0.697479	2.256470
-0.501862	0.735321	2.222290
-0.153961	0.773926	2.166290
0.192566	0.818481	2.119446
0.452728	0.785828	2.069550
0.456390	0.748596	2.022552
0.348969	0.727081	1.983185
0.119629	0.802612	1.916656
-0.147705	0.808563	1.862793
-0.431976	0.782318	1.831360
-0.802612	0.779572	1.816711
-1.201172	0.734863	1.782379
-1.351929	0.760345	1.747437
-1.305389	0.799866	1.714935
-1.210937	0.862274	1.675262
-0.998383	0.819397	1.627960
-0.751038	0.776367	1.576233
-0.345306	0.754395	1.511536
0.123444	0.835724	1.445160
0.427399	0.858307	1.405334
0.697327	0.904846	1.354218
0.948181	0.881805	1.350098
1.071014	0.801239	1.335297
1.030426	0.847778	1.290283
0.837555	0.902100	1.289825
0.549316	0.918884	1.309357
0.132294	0.892181	1.336365
-0.350189	0.855560	1.336517
-0.898285	0.799408	1.344757
-1.284027	0.842133	1.363525
-1.520538	0.885315	1.337433
-1.617889	0.908661	1.356354
-1.537628	0.817108	1.309509
-1.128693	0.798035	1.311646
-0.545502	0.807953	1.278534
0.139923	0.857391	1.246185
0.744171	0.893555	1.214905
1.244202	0.888977	1.181946
1.653442	0.829926	1.149902
1.835632	0.754547	1.088257
1.770172	0.835419	1.019287
1.467133	0.860138	0.964813
1.000061	0.828400	0.890961
0.514679	0.749664	0.827026
0.080109	0.700989	0.774841
-0.327759	0.650635	0.738373
-0.652924	0.656586	0.695648
-0.899506	0.722198	0.676270
-1.098938	0.682220	0.619354
-1.306763	0.625916	0.588531
-1.403961	0.601654	0.561829
-1.372070	0.628510	0.524902
-1.198120	0.658112	0.528259
-0.960541	0.700226	0.503693
-0.703888	0.668030	0.506134
-0.381012	0.592499	0.484314
-0.023499	0.576172	0.483398
0.313263	0.604095	0.451202
0.682983	0.596466	0.442657
0.975189	0.534821	0.438995
1.127319	0.480652	0.449829
1.160431	0.417328	0.452423
1.052856	0.447998	0.469208
0.876312	0.469971	0.502319
0.636139	0.529938	0.510712
0.276337	0.439301	0.513000
-0.110321	0.408630	0.512543
-0.492401	0.394897	0.531769
-0.860138	0.449982	0.541229
-1.117554	0.459595	0.561218
-1.264343	0.503998	0.579224
-1.264343	0.437927	0.606384
-1.135559	0.377197	0.644989
-0.910950	0.424652	0.644226
-0.634003	0.448608	0.657349
-0.312347	0.437775	0.671234
-0.058746	0.372314	0.639801
0.156708	0.349121	0.649109
0.273437	0.298004	0.643921
0.352020	0.336609	0.625305
0.319061	0.364227	0.616302
0.232086	0.407562	0.623016
0.090179	0.355682	0.588684
-0.020599	0.311584	0.555878
-0.052643	0.353851	0.547180
-0.079498	0.392761	0.518951
-0.118561	0.418243	0.503387
-0.105133	0.404510	0.473938
-0.072632	0.378876	0.460205
-0.023651	0.311127	0.426483
0.029907	0.389557	0.380707
0.143280	0.402069	0.337982
0.269318	0.384216	0.315094
0.339813	0.331116	0.266876
0.343170	0.277100	0.219879
0.339966	0.246582	0.172577
0.300140	0.295715	0.142822
0.201111	0.359344	0.107422
0.054321	0.290375	0.061646
-0.094147	0.242462	0.012665
-0.218353	0.236359	-0.020599
-0.394440	0.296936	-0.063324
-0.528564	0.361328	-0.088654
-0.445251	0.393219	-0.116119
-0.191345	0.357208	-0.154724
0.177765	0.314026	-0.164642
0.571289	0.305786	-0.218964
1.044159	0.341644	-0.269318
1.468201	0.369873	-0.262451
1.626434	0.329895	-0.311584
1.449432	0.286713	-0.332794
0.860596	0.249786	-0.353851
-0.020142	0.270538	-0.375214
-1.088562	0.300140	-0.404358
-2.115326	0.352173	-0.422821
-2.626801	0.268250	-0.442810
-2.624969	0.235443	-0.486908
-2.618103	0.248108	-0.491638
-2.622833	0.289917	-0.507050
-2.498322	0.324249	-0.551300
-1.763153	0.345612	-0.555573
-0.905457	0.303955	-0.579529
0.005341	0.247650	-0.616913
0.888824	0.325623	-0.635376
1.660614	0.359650	-0.673370
2.270966	0.335236	-0.711212
2.610321	0.300446	-0.752563
2.680054	0.275574	-0.782623
2.540131	0.240479	-0.811768
2.165070	0.263367	-0.830536
1.691895	0.290833	-0.845642
1.121368	0.277863	-0.875854
0.505219	0.226135	-0.892029
-0.027924	0.207672	-0.886230
-0.470276	0.236969	-0.901642
-0.771027	0.292358	-0.887604
-0.945129	0.346375	-0.877838
-0.998840	0.361328	-0.848389
-0.946350	0.340881	-0.807037
-0.823212	0.286560	-0.781097
-0.647583	0.334930	-0.751953
-0.469513	0.338593	-0.717316
-0.317688	0.341644	-0.660248
-0.178070	0.305939	-0.614319
-0.128632	0.271454	-0.576935
-0.127258	0.244293	-0.515289
-0.196228	0.264282	-0.493317
-0.218964	0.355530	-0.439606
-0.215607	0.291901	-0.407715
-0.187378	0.264587	-0.376282
-0.122223	0.232697	-0.353241
-0.044708	0.276031	-0.339203
0.012207	0.322113	-0.302277
0.059967	0.343018	-0.297089
0.116272	0.326233	-0.272369
0.141296	0.285187	-0.248108
0.071411	0.292053	-0.243073
-0.070496	0.319672	-0.253906
-0.216675	0.313873	-0.223541
-0.305328	0.273132	-0.216827
-0.431061	0.246735	-0.208130
-0.541687	0.195618	-0.221252
-0.591125	0.209808	-0.204468
-0.622406	0.252686	-0.193176
-0.562286	0.305023	-0.198212
-0.496674	0.222473	-0.205231
-0.423889	0.195160	-0.224762
-0.277252	0.204163	-0.229797
-0.150604	0.287018	-0.231323
-0.024872	0.305481	-0.255585
0.109100	0.329437	-0.249329
0.183868	0.285339	-0.264435
0.224762	0.206909	-0.260773
0.184784	0.275421	-0.298462
0.116119	0.303955	-0.302429
0.027771	0.320587	-0.308075
-0.079346	0.241699	-0.319214
-0.162811	0.224152	-0.328522
-0.254669	0.182495	-0.338898
-0.302582	0.215302	-0.355682
-0.283508	0.290070	-0.343170
-0.252228	0.277710	-0.355835
-0.180206	0.222321	-0.385590
-0.064392	0.231323	-0.392761
0.063019	0.238190	-0.413666
0.203705	0.289459	-0.422211
0.318604	0.340729	-0.425720
0.409241	0.333862	-0.440063
0.467987	0.294647	-0.444794
0.492859	0.223694	-0.452576
0.432129	0.284576	-0.466309
0.387268	0.298767	-0.471344
0.313416	0.295410	-0.466156
0.228271	0.264740	-0.486450
0.121155	0.197296	-0.475616
0.041809	0.194397	-0.468140
-0.062866	0.210266	-0.478058
-0.117035	0.292358	-0.481262
-0.145416	0.234680	-0.466003
-0.196991	0.193024	-0.477600
-0.218048	0.205536	-0.477142
-0.243683	0.240784	-0.480347
-0.257568	0.283051	-0.470581
-0.277405	0.306244	-0.468292
-0.304413	0.279846	-0.454865
-0.325317	0.248718	-0.445557
-0.363922	0.267944	-0.440063
-0.388641	0.299835	-0.451660
-0.411377	0.322723	-0.442505
-0.380402	0.282288	-0.443268
-0.397186	0.250549	-0.450287
-0.355377	0.197296	-0.430298
-0.348816	0.214996	-0.454559
-0.297089	0.255127	-0.418854
-0.240936	0.319214	-0.431519
-0.245209	0.244446	-0.414581
-0.236053	0.220032	-0.424042
-0.197906	0.240173	-0.425720
-0.126343	0.302124	-0.412140
-0.095673	0.343475	-0.406952
-0.059509	0.339355	-0.386353
-0.024872	0.307770	-0.396118
0.006714	0.253448	-0.375214
-0.010529	0.296936	-0.390472
0.010223	0.331573	-0.397949
0.014343	0.331421	-0.365906
0.003510	0.282745	-0.380249
-0.003357	0.238800	-0.355225
-0.005493	0.204315	-0.366669
0.038910	0.243378	-0.351410
0.069122	0.289307	-0.346985
0.099792	0.282288	-0.332489
0.088043	0.235138	-0.344391
0.077362	0.213928	-0.332794
0.064697	0.261383	-0.346680
0.063782	0.307922	-0.337830
0.009766	0.347748	-0.351257
-0.034790	0.344696	-0.327454
-0.064087	0.308380	-0.317230
-0.110779	0.285339	-0.319824
-0.169525	0.333405	-0.335999
-0.134125	0.353241	-0.324097
-0.122681	0.291901	-0.337830
-0.103455	0.261383	-0.338287
-0.077972	0.198212	-0.339508
-0.054016	0.208893	-0.347595
-0.030212	0.264740	-0.337982
0.012054	0.334778	-0.353699
0.033112	0.243073	-0.357056
0.003510	0.212402	-0.363312
-0.029449	0.200500	-0.366974
-0.085602	0.296936	-0.381622
-0.128021	0.315247	-0.373077
-0.153503	0.320129	-0.379944
-0.146179	0.307617	-0.350494
-0.135498	0.217133	-0.354614
-0.101471	0.239105	-0.352478
-0.050659	0.290527	-0.364838
-0.022430	0.309296	-0.365753
0.004578	0.273590	-0.364990
-0.007629	0.236664	-0.350189
-0.048065	0.198059	-0.347137
-0.126343	0.216217	-0.332947
-0.185089	0.273743	-0.348053
-0.255737	0.299530	-0.336304
-0.344391	0.237732	-0.336151
-0.396118	0.213013	-0.320740
-0.448914	0.247192	-0.334778
-0.452271	0.300903	-0.312805
-0.386200	0.323486	-0.318298
-0.297852	0.339966	-0.300598
-0.204315	0.295563	-0.300293
-0.125122	0.216064	-0.287018
-0.083466	0.276794	-0.317841
0.003967	0.318604	-0.298462
0.087280	0.335083	-0.301819
0.137634	0.283813	-0.303192
0.188599	0.236511	-0.308380
0.236359	0.215149	-0.307770
0.227356	0.250244	-0.320282
0.200806	0.305786	-0.314331
0.122681	0.274048	-0.320892
0.005341	0.238495	-0.328827
-0.118713	0.219421	-0.343170
-0.197296	0.297699	-0.329132
-0.273132	0.323029	-0.339661
-0.295410	0.353241	-0.338287
-0.328827	0.316925	-0.331879
-0.312653	0.285187	-0.330963
-0.287476	0.262146	-0.338898
-0.232697	0.329132	-0.341949
-0.182343	0.348206	-0.352631
-0.148010	0.330048	-0.347595
-0.119324	0.277405	-0.355072
-0.097198	0.213623	-0.363007
-0.055084	0.238190	-0.349579
-0.017853	0.291901	-0.351868
0.010529	0.346680	-0.326538
0.005646	0.289307	-0.355682
0.043030	0.247650	-0.343475
0.073395	0.255737	-0.335541
0.066071	0.298157	-0.338898
0.053558	0.332489	-0.352631
0.053101	0.362701	-0.339203
0.049744	0.344086	-0.327759
0.026093	0.278168	-0.333099
0.005188	0.318298	-0.342560
-0.006104	0.362701	-0.341949
-0.013428	0.343323	-0.330811
-0.032806	0.300751	-0.328674
-0.039978	0.256348	-0.316162
-0.044250	0.205231	-0.327911
-0.052185	0.231628	-0.324707
-0.069122	0.287476	-0.298920
-0.068054	0.301666	-0.279236
-0.098724	0.261230	-0.267181
-0.127106	0.222168	-0.260773
-0.157776	0.249023	-0.237427
-0.160370	0.325775	-0.208435
-0.194550	0.407104	-0.186310
-0.233002	0.355530	-0.186615
-0.252838	0.294189	-0.165253
-0.263977	0.224762	-0.158691
-0.276489	0.314789	-0.156555
-0.241089	0.347595	-0.132751
-0.177155	0.346527	-0.112457
-0.125122	0.289764	-0.101624
-0.067291	0.220642	-0.098877
0.009460	0.218964	-0.077057
0.074005	0.272064	-0.054932
0.120087	0.342712	-0.028687
0.139923	0.293274	-0.009155
0.128632	0.241089	0.003967
0.132294	0.227356	-0.001068
0.100708	0.289917	0.020599
0.037231	0.296631	0.025787
-0.007324	0.343323	0.028229
-0.068207	0.317535	0.044861
-0.110779	0.273590	0.066071
-0.159149	0.276947	0.065918
-0.213776	0.323181	0.066986
-0.208740	0.337982	0.070038
-0.206757	0.327759	0.075378
-0.164948	0.251465	0.068207
-0.147400	0.200806	0.081940
-0.127869	0.214081	0.050659
-0.080719	0.250854	0.045929
-0.027161	0.302429	0.044861
-0.038300	0.230255	0.036469
-0.059052	0.220795	0.030518
-0.090790	0.216980	0.012207
-0.141449	0.293427	0.012360
-0.194244	0.338135	0.005798
-0.195160	0.336151	0.016785
-0.199738	0.308685	0.009308
-0.221100	0.248871	0.016479
-0.238647	0.287323	-0.016022
-0.273590	0.326385	-0.017090
-0.255890	0.334320	-0.021820
-0.288544	0.273285	-0.037079
-0.286713	0.243225	-0.038452
-0.251007	0.223999	-0.030365
-0.212860	0.245667	-0.039520
-0.131836	0.270844	-0.037231
-0.089111	0.264740	-0.030670
-0.047455	0.221252	-0.017395
-0.015869	0.200806	-0.022888
-0.016785	0.240784	-0.003510
-0.014648	0.301208	0.000000
-0.007477	0.336151	0.016785
-0.029297	0.322266	0.019226
-0.092621	0.302429	0.039673
-0.137634	0.237732	0.048676
-0.177917	0.293121	0.060730
-0.178833	0.312195	0.060883
-0.156708	0.316467	0.069885
-0.129547	0.288849	0.090332
-0.078125	0.260925	0.110626
0.014801	0.249786	0.125580
0.088959	0.275116	0.155945
0.148773	0.351868	0.171356
0.176392	0.316315	0.178833
0.165710	0.266266	0.184479
0.189514	0.242004	0.192719
0.201263	0.287323	0.212402
0.195923	0.361481	0.218964
0.157318	0.435486	0.245819
0.086060	0.392761	0.261688
0.036163	0.329437	0.261383
-0.079651	0.344391	0.249786
-0.173798	0.397339	0.253143
-0.220795	0.408936	0.263214
-0.241852	0.369720	0.270844
-0.267792	0.343933	0.263824
-0.283508	0.298920	0.259247
-0.278168	0.345917	0.269928
-0.235901	0.355988	0.278625
-0.211182	0.434418	0.281982
-0.195160	0.358276	0.275269
-0.174255	0.337982	0.268555
-0.147247	0.339508	0.274200
-0.115967	0.413055	0.266113
-0.071259	0.488739	0.285034
-0.043793	0.492554	0.279846
-0.044861	0.483856	0.296478
-0.076752	0.394135	0.314178
-0.075226	0.466309	0.296021
-0.078278	0.498352	0.299530
-0.083923	0.467529	0.310516
-0.108795	0.414734	0.302277
-0.090332	0.391846	0.298157
-0.082397	0.376129	0.307465
-0.043945	0.417633	0.308838
0.008698	0.496979	0.323486
0.027618	0.485687	0.362701
0.012970	0.417328	0.329132
0.028229	0.418243	0.323334
0.051575	0.479279	0.339661
0.069275	0.498047	0.341339
0.061798	0.564423	0.355530
0.042572	0.532684	0.355072
0.013733	0.507507	0.374756
-0.075378	0.458832	0.375214
-0.148010	0.541687	0.379028
-0.165253	0.581207	0.385284
-0.169220	0.556946	0.385590
-0.185852	0.519257	0.403137
-0.177765	0.473022	0.414124
-0.157013	0.432892	0.416718
-0.105896	0.474548	0.430450
-0.042419	0.539398	0.445404
-0.054016	0.460510	0.443115
-0.083160	0.406647	0.440979
-0.066528	0.378571	0.448151
-0.066681	0.448761	0.467987
-0.079956	0.488739	0.478516
-0.107269	0.510712	0.470428
-0.092621	0.473022	0.488739
-0.131073	0.386200	0.485687
-0.171967	0.391693	0.492554
-0.189209	0.425720	0.490417
-0.223083	0.440826	0.507355
-0.239716	0.419159	0.494843
-0.226440	0.384979	0.514984
-0.219574	0.315247	0.496216
-0.185699	0.345917	0.501709
-0.114288	0.365448	0.517731
-0.103912	0.385132	0.534210
-0.060730	0.328217	0.502167
0.044556	0.320740	0.520172
0.103912	0.353394	0.515594
0.155182	0.414124	0.519257
0.192108	0.430756	0.522003
0.216370	0.419922	0.507050
0.245056	0.403290	0.525665
0.217438	0.328979	0.520477
0.123901	0.378113	0.488434
0.029907	0.413666	0.485840
-0.029449	0.402222	0.490570
-0.078888	0.372925	0.488739
-0.154572	0.317535	0.471039
-0.200806	0.289764	0.500183
-0.260773	0.311890	0.476685
-0.228882	0.350342	0.485535
-0.218658	0.298004	0.489349
-0.215759	0.247040	0.486145
-0.206757	0.209656	0.462799
-0.168457	0.262299	0.467529
-0.142517	0.317841	0.470276
-0.116425	0.379791	0.473785
-0.081940	0.347290	0.458221
-0.029907	0.291138	0.481873
-0.004272	0.237579	0.469360
0.033264	0.303955	0.455170
0.038300	0.321808	0.447845
0.002441	0.317230	0.452423
-0.045013	0.282898	0.444031
-0.079956	0.196228	0.441132
-0.122528	0.214386	0.452118
-0.150757	0.260010	0.453491
-0.181885	0.319366	0.467834
-0.204620	0.242004	0.467377
-0.203552	0.235748	0.460510
-0.198517	0.228577	0.458221
-0.166168	0.259705	0.463715
-0.143738	0.308075	0.464935
-0.163879	0.316620	0.472717
-0.135498	0.283051	0.480804
-0.174866	0.240021	0.468140
-0.175476	0.258942	0.466003
-0.139313	0.290375	0.464478
-0.057831	0.302429	0.453644
0.014191	0.254059	0.435944
0.072784	0.234680	0.432739
0.070801	0.183258	0.437775
0.015106	0.208588	0.428314
-0.004730	0.252533	0.450287
-0.055084	0.315552	0.442963
-0.108643	0.237579	0.419464
-0.105591	0.212402	0.420532
-0.125580	0.232086	0.395813
-0.115509	0.284882	0.405731
-0.139313	0.336151	0.393372
-0.178528	0.356903	0.391388
-0.188446	0.296783	0.406494
-0.227966	0.223846	0.389252
-0.303955	0.281677	0.345154
-0.273132	0.344849	0.358734
-0.256958	0.345306	0.353088
-0.190277	0.288239	0.329437
-0.146027	0.261688	0.319519
-0.152130	0.218353	0.296783
-0.114899	0.263672	0.301971
-0.060577	0.293274	0.292816
-0.018463	0.245667	0.257721
0.014343	0.198669	0.231476
0.071716	0.190277	0.230408
0.157623	0.205536	0.226440
0.172577	0.211945	0.210571
0.160370	0.279846	0.212860
0.128479	0.234833	0.195770
0.084381	0.186920	0.186615
0.067749	0.150757	0.175171
-0.015411	0.212708	0.165710
-0.110931	0.220947	0.156708
-0.202942	0.189056	0.139923
-0.316772	0.104218	0.126190
-0.368652	0.021057	0.130463
-0.368805	0.010376	0.132141
-0.346375	0.043488	0.126953
-0.262451	0.135956	0.114899
-0.154114	0.117493	0.141449
-0.141907	0.110626	0.116119
-0.065765	0.171356	0.102692
0.031128	0.340881	0.101471
0.113068	0.520782	0.090027
0.170288	0.721893	0.114288
0.234833	0.813141	0.099030
0.217896	0.950928	0.117950
0.194397	1.189728	0.097656
0.192566	1.562805	0.088348
0.156860	1.942902	0.089722
0.071411	2.335205	0.095673
-0.028229	2.662048	0.104218
-0.110016	2.645111	0.092468
-0.182953	2.657928	0.081177
-0.158691	2.647858	0.094147
-0.162048	2.637329	0.112457
-0.268250	2.661438	0.101013
-0.361786	2.663422	0.098572
-0.419159	2.654877	0.092316
-0.471649	2.653046	0.112762
-0.452118	2.651520	0.100098
-0.352936	2.656097	0.120544
-0.263367	2.655334	0.135956
-0.183868	2.652588	0.123291
-0.088654	2.651215	0.119324
-0.012360	2.657623	0.127411
0.080719	2.658691	0.118713
0.165100	2.288818	0.135956
0.161438	1.827393	0.143890
0.124512	1.400146	0.149536
0.078278	1.034851	0.162964
0.038910	0.706177	0.170135
-0.046997	0.340576	0.169830
-0.093536	-0.039825	0.168152
-0.105286	-0.358276	0.173798
-0.061340	-0.554962	0.187225
-0.085297	-0.694733	0.184174
-0.104980	-0.741730	0.191650
-0.070038	-0.729828	0.204010
-0.023346	-0.641479	0.225983
-0.107574	-0.506592	0.235138
-0.244751	-0.307465	0.223389
-0.313263	-0.186462	0.242920
-0.462189	-0.120087	0.252533
-0.585937	-0.055847	0.258636
-0.618896	0.001984	0.274048
-0.542603	0.094147	0.301208
-0.444641	0.194702	0.310211
-0.274353	0.306244	0.348511
-0.199280	0.283051	0.347595
-0.076141	0.258026	0.349579
0.176544	0.299530	0.391388
0.391083	0.375519	0.384827
0.616913	0.416565	0.411377
0.886841	0.411682	0.428925
1.134644	0.389709	0.460510
1.302795	0.305328	0.473938
1.186066	0.353241	0.494385
0.688629	0.379944	0.501404
0.069427	0.411530	0.521393
-0.651550	0.349884	0.542297
-1.232910	0.325012	0.549774
-1.358032	0.301208	0.560455
-0.962524	0.372314	0.577545
-0.314026	0.413208	0.607605
0.314789	0.392914	0.605774
0.810547	0.319824	0.614166
0.902710	0.288391	0.617981
0.615082	0.343323	0.616913
0.123291	0.421448	0.656738
-0.565796	0.467072	0.654907
-1.362152	0.442352	0.647278
-2.098694	0.378723	0.673370
-2.623749	0.312042	0.683899
-2.628937	0.383759	0.666656
-2.633820	0.384064	0.654602
-2.218781	0.385742	0.666351
-1.223602	0.340118	0.687866
0.059052	0.294189	0.675964
1.470337	0.279083	0.673676
2.662201	0.356140	0.707245
2.684937	0.414734	0.735931
2.675934	0.343475	0.713196
2.676697	0.287628	0.688171
2.691040	0.323029	0.726471
2.337799	0.385132	0.744324
1.550140	0.433197	0.739136
0.850372	0.434723	0.733032
0.323639	0.440063	0.763550
-0.185394	0.414429	0.792847
-0.726013	0.424805	0.773468
-1.339874	0.479736	0.780029
-1.961365	0.474701	0.778656
-2.569733	0.428619	0.779266
-2.627258	0.383453	0.765228
-2.621918	0.334778	0.781708
-2.606354	0.360870	0.801849
-2.615814	0.392303	0.815125
-2.631683	0.418854	0.807495
-2.078857	0.345612	0.824280
-1.045532	0.335693	0.859833
0.154572	0.352173	0.875092
1.340027	0.416412	0.938873
2.284393	0.455475	0.968781
2.680817	0.467072	1.030579
2.684174	0.425262	1.100769
2.688293	0.356903	1.169128
2.672119	0.402527	1.229248
1.878510	0.464020	1.306000
1.122437	0.485229	1.401215
0.462799	0.444183	1.478577
-0.223694	0.382690	1.566772
-0.931244	0.328064	1.638336
-1.546783	0.344086	1.738129
-1.802063	0.406647	1.833038
-1.803284	0.413666	1.916656
-1.894379	0.351105	1.950531
-1.795807	0.356598	1.997070
-1.574707	0.376434	2.068787
-1.184540	0.438690	2.171478
-0.875549	0.480499	2.213440
-0.487213	0.470886	2.277069
0.126343	0.424194	2.333069
0.670319	0.381317	2.361145
0.967407	0.437927	2.393646
1.146088	0.467377	2.420807
1.121216	0.452423	2.462006
1.028442	0.422058	2.482452
1.131439	0.395660	2.514648
1.053009	0.369415	2.535248
0.796967	0.400848	2.562561
0.446014	0.466309	2.591705
0.283508	0.406647	2.613068
-0.015259	0.369873	2.624817
-0.391998	0.348816	2.609406
-0.534973	0.407257	2.632904
-0.316620	0.472717	2.663116
-0.062408	0.505524	2.675934
0.234222	0.483704	2.699890
0.334015	0.439301	2.720795
0.266266	0.430756	2.688141
0.082855	0.472870	2.679596
-0.303040	0.508575	2.681427
-0.523071	0.471649	2.659149
-0.683899	0.454712	2.665558
-0.716858	0.383606	2.651978
-0.670013	0.407562	2.646484
-0.587311	0.455322	2.641144
-0.875092	0.520630	2.631836
-1.292572	0.439453	2.596130
-1.472626	0.435791	2.576294
-1.582489	0.420837	2.545166
-1.683655	0.453949	2.511292
-1.362000	0.510254	2.488556
-0.747833	0.484619	2.443695
-0.118103	0.477600	2.441406
0.529327	0.433197	2.429962
0.933838	0.511322	2.379913
1.189423	0.526428	2.358704
1.344452	0.510254	2.312622
1.510010	0.517426	2.295837
1.553650	0.486145	2.278595
1.513519	0.444641	2.252045
1.407318	0.470886	2.265015
1.092072	0.519714	2.242889
0.551910	0.514526	2.214050
-0.061035	0.484619	2.215118
-0.240631	0.450287	2.212677
0.054016	0.510254	2.198029
0.152130	0.565491	2.187500
0.046692	0.585327	2.179108
-0.329590	0.542908	2.148132
-0.590363	0.513153	2.189178
-0.796204	0.476074	2.194977
-1.092682	0.535431	2.189636
-1.154480	0.576324	2.218475
-0.806732	0.580902	2.279968
-0.526733	0.527344	2.348328
-0.466156	0.476074	2.415009
-0.617523	0.484619	2.492371
-0.822144	0.525665	2.549744
-0.765533	0.584869	2.597504
-0.518799	0.508118	2.638702
-0.248566	0.471344	2.693481
-0.078278	0.484619	2.714691
0.082703	0.539856	2.722931
0.208282	0.612030	2.718658
0.236664	0.625000	2.722778
0.196075	0.590820	2.716980
0.098114	0.559540	2.722168
0.151215	0.590668	2.721405
0.092773	0.608978	2.721405
0.021820	0.627136	2.722473
-0.026703	0.588837	2.720184
-0.163879	0.556946	2.714233
-0.318298	0.488281	2.719421
-0.423737	0.549316	2.734528
-0.554504	0.590363	2.723083
-0.618134	0.613556	2.718201
-0.370789	0.579681	2.731476
0.405884	0.550079	2.723694
1.428833	0.560608	2.713318
2.193146	0.593414	2.669220
2.566376	0.659027	2.610931
2.393951	0.658417	2.548218
1.720886	0.639648	2.520905
0.659485	0.600433	2.468262
-0.495453	0.701599	2.406158
-1.569672	0.713806	2.331085
-2.224121	0.697021	2.318268
-2.295685	0.652008	2.310486
-2.115936	0.617218	2.359467
-1.872711	0.608826	2.378082
-1.478424	0.618286	2.430878
-0.866852	0.658722	2.468872
-0.491943	0.648041	2.495575
-0.502472	0.625458	2.503967
-0.380249	0.617523	2.519989
-0.075378	0.661926	2.547302
0.310059	0.725555	2.547760
0.747681	0.771179	2.526703
1.382599	0.754242	2.545624
2.023010	0.719757	2.565765
2.197418	0.690918	2.564850
1.822510	0.766754	2.531128
1.187897	0.800018	2.540283
0.348663	0.775604	2.505646
-0.565033	0.736237	2.469940
-1.224213	0.690155	2.457733
-1.659698	0.682983	2.450256
-1.791840	0.760345	2.493591
-1.710358	0.793457	2.528839
-1.537781	0.740814	2.534027
-1.233673	0.736847	2.570801
-0.736542	0.765686	2.601013
-0.200653	0.811310	2.611237
0.276031	0.844879	2.648926
0.690918	0.862732	2.660065
1.107941	0.846405	2.699585
1.201477	0.812225	2.715912
1.155701	0.863190	2.706909
1.188049	0.889435	2.719269
1.029358	0.901794	2.701569
0.627747	0.869446	2.703094
0.117645	0.834351	2.687225
-0.195770	0.803528	2.712402
-0.429535	0.832062	2.696228
-0.668030	0.887146	2.688293
-0.882111	0.882568	2.684174
-1.020203	0.826111	2.631683
-1.058807	0.794525	2.605133
-1.056213	0.832520	2.568359
-1.094818	0.894623	2.507477
-0.998077	0.937653	2.460785
-0.732117	0.908508	2.404480
-0.248413	0.882263	2.378387
0.288391	0.850525	2.315979
0.765533	0.941162	2.206573
1.158905	0.985413	2.160950
1.343842	0.944977	2.115326
1.336975	0.893097	2.076874
1.183472	0.878448	2.026672
0.887604	0.860596	1.987610
0.505371	0.875549	1.935425
0.085144	0.946503	1.897583
-0.335388	0.870514	1.853180
-0.656738	0.858002	1.845551
-0.887146	0.844421	1.815948
-0.989227	0.877533	1.812286
-0.999603	0.921326	1.793671
-1.006927	0.987549	1.785431
-1.007843	0.948944	1.783905
-0.950470	0.884552	1.804810
-0.879669	0.855255	1.800385
-0.879364	0.927277	1.783142
-0.935211	0.912323	1.771851
-0.934906	0.906982	1.767426
-0.786438	0.850677	1.741486
-0.489197	0.761566	1.707001
-0.098724	0.746307	1.704559
0.289459	0.810089	1.705933
0.594025	0.843964	1.644287
0.806427	0.753479	1.585541
1.001587	0.711212	1.535034
1.166077	0.681610	1.481781
1.284943	0.735321	1.411591
1.262817	0.745392	1.369019
1.103821	0.753479	1.305084
0.897675	0.705414	1.286316
0.615234	0.631561	1.240997
0.370483	0.664062	1.184998
0.144196	0.698547	1.144714
-0.079956	0.695496	1.131592
-0.332031	0.632629	1.098480
-0.525513	0.617218	1.090393
-0.665436	0.550385	1.066742
-0.718842	0.566406	1.041412
-0.716858	0.595245	1.043854
-0.675659	0.599213	1.049805
-0.682220	0.542603	1.032867
-0.697784	0.473480	1.049194
-0.659332	0.480194	1.046295
-0.550232	0.532990	1.072235
-0.488281	0.597534	1.076813
-0.427246	0.563660	1.059418
-0.340118	0.532990	1.072540
-0.175323	0.484619	1.090698
-0.088043	0.537720	1.084747
-0.034180	0.581360	1.086426
0.028992	0.550690	1.047821
0.104370	0.501709	1.050720
0.229797	0.442047	1.029663
0.394287	0.401917	1.027527
0.572052	0.424042	1.027222
0.666351	0.483093	1.022034
0.589600	0.430908	1.026001
0.364227	0.403900	0.973053
0.075989	0.369873	0.955811
-0.265656	0.420990	0.934296
-0.622864	0.494690	0.904083
-0.910187	0.513458	0.873108
-0.990295	0.458374	0.843048
-0.895844	0.410767	0.815125
-0.718079	0.407715	0.767059
-0.453644	0.480042	0.754242
-0.140991	0.495300	0.722961
0.148468	0.443878	0.680695
0.410767	0.410767	0.657501
0.585022	0.335388	0.644379
0.611420	0.347900	0.635223
0.519867	0.367432	0.616913
0.395050	0.403290	0.610352
0.161133	0.331573	0.558167
-0.027313	0.322418	0.515594
-0.096130	0.322266	0.523376
-0.162354	0.363464	0.494690
-0.270386	0.371857	0.485229
-0.423737	0.418854	0.464783
-0.561218	0.409851	0.464325
-0.707550	0.323639	0.461426
-0.865173	0.350800	0.438080
-0.752869	0.386810	0.408173
-0.316315	0.411224	0.409851
0.270233	0.391998	0.390015
0.912323	0.365753	0.381927
1.595154	0.312042	0.357666
2.162628	0.363922	0.363312
2.392731	0.412445	0.349884
2.200012	0.401764	0.321350
1.516266	0.326691	0.300140
0.421143	0.337982	0.303192
-0.908661	0.406036	0.271454
-2.146454	0.392456	0.235443
-2.606201	0.468445	0.227356
-2.625275	0.484161	0.198517
-2.618561	0.422058	0.177155
-2.621002	0.342255	0.157928
-2.569275	0.406036	0.116119
-1.888275	0.409546	0.092621
-1.127930	0.438843	0.080261
-0.374451	0.394287	0.059204
0.406494	0.339355	0.019684
1.112518	0.314484	0.012360
1.685333	0.362244	-0.008698
2.044067	0.436249	-0.023499
2.108154	0.380096	-0.054016
1.993866	0.365601	-0.091095
1.729126	0.334015	-0.109253
1.432800	0.412292	-0.133209
1.105957	0.428467	-0.149536
0.778046	0.475464	-0.175323
0.469208	0.419006	-0.173645
0.252075	0.357666	-0.171967
0.039520	0.379639	-0.171051
-0.126190	0.436707	-0.177307
-0.243225	0.464935	-0.154572
-0.366974	0.425568	-0.133362
-0.415955	0.376282	-0.118561
-0.450897	0.296021	-0.093536
-0.488129	0.350037	-0.049133
-0.462494	0.391083	-0.007782
-0.332489	0.401154	0.013885
-0.226135	0.351105	0.036926
-0.127106	0.317535	0.064545
-0.092163	0.363922	0.093536
-0.113831	0.399628	0.126495
-0.192566	0.446777	0.148926
-0.338593	0.447845	0.156860
-0.434113	0.459900	0.189972
-0.558472	0.373077	0.214996
-0.693359	0.404968	0.221405
-0.766602	0.430756	0.225983
-0.803528	0.433350	0.242462
-0.830536	0.367126	0.274200
-0.806122	0.328827	0.282440
-0.723724	0.288391	0.296326
-0.660248	0.345154	0.314026
-0.550537	0.397186	0.347748
-0.392456	0.354767	0.334167
-0.154419	0.299072	0.335236
0.214691	0.276642	0.349731
0.549622	0.336456	0.350342
0.748901	0.399323	0.349731
0.892639	0.442200	0.356293
0.963745	0.424042	0.374603
0.980530	0.389862	0.383606
0.894623	0.366821	0.396423
0.734253	0.422211	0.364380
0.550232	0.475159	0.342865
0.394135	0.436554	0.356293
0.244904	0.382538	0.336609
0.096741	0.341492	0.339966
-0.129700	0.344086	0.354156
-0.405121	0.381165	0.328217
-0.615540	0.451202	0.335541
-0.802307	0.362396	0.310211
-0.924835	0.323639	0.291290
-0.954132	0.327911	0.295868
-0.875702	0.386505	0.286713
-0.688934	0.391541	0.264587
-0.504608	0.399628	0.244141
-0.348511	0.351562	0.252838
-0.201874	0.313110	0.228882
-0.046234	0.363922	0.208588
0.090332	0.420380	0.211792
0.143127	0.441132	0.197754
0.164490	0.361176	0.168610
0.173950	0.333405	0.156097
0.140076	0.315247	0.157013
0.081024	0.327606	0.140991
-0.010071	0.371857	0.119781
-0.123291	0.394745	0.105743
-0.209808	0.346985	0.111542
-0.269928	0.346069	0.061493
-0.279694	0.329132	0.034637
-0.223236	0.355072	0.020752
-0.128937	0.419464	0.021210
-0.063171	0.435486	0.000000
0.026550	0.401001	-0.021820
0.128784	0.318604	-0.037231
0.138092	0.407867	-0.053253
0.156250	0.445557	-0.059357
0.190277	0.446930	-0.083313
0.214539	0.397034	-0.086975
0.237579	0.343475	-0.096436
0.218964	0.283661	-0.113220
0.155182	0.341644	-0.119171
0.076447	0.413818	-0.120087
0.000610	0.370331	-0.110474
-0.135040	0.321198	-0.157471
-0.275574	0.331726	-0.142975
-0.378418	0.364227	-0.153809
-0.460205	0.409393	-0.169220
-0.547333	0.464783	-0.164032
-0.589905	0.417023	-0.171661
-0.600586	0.394440	-0.169373
-0.551300	0.374451	-0.196075
-0.454865	0.438538	-0.188446
-0.313110	0.440521	-0.199127
-0.166168	0.413666	-0.204773
0.024872	0.381470	-0.212402
0.213470	0.357971	-0.199127
0.295563	0.323029	-0.222168
0.340271	0.342712	-0.210419
0.377502	0.423889	-0.213928
0.366058	0.382996	-0.226593
0.332031	0.333862	-0.242767
0.284271	0.346832	-0.214539
0.160370	0.396271	-0.249786
-0.001831	0.410767	-0.248871
-0.119781	0.491791	-0.262146
-0.235291	0.434875	-0.246582
-0.316620	0.371857	-0.259094
-0.375671	0.403748	-0.274353
-0.371857	0.436859	-0.287476
-0.254669	0.453491	-0.296783
-0.202789	0.387878	-0.305176
-0.179596	0.376434	-0.325470
-0.140686	0.335541	-0.298615
-0.092163	0.371857	-0.317535
-0.068054	0.409546	-0.323792
-0.077209	0.396271	-0.321350
-0.039520	0.340881	-0.341034
-0.018463	0.301361	-0.356903
-0.011597	0.358734	-0.361176
-0.036774	0.383301	-0.381470
-0.107727	0.421448	-0.393219
-0.166626	0.404053	-0.409393
-0.160980	0.399933	-0.402985
-0.073090	0.339813	-0.398102
-0.004578	0.410461	-0.426788
0.000763	0.442200	-0.433502
-0.032959	0.410156	-0.456696
-0.027924	0.401764	-0.470734
-0.070190	0.369873	-0.483704
-0.099487	0.299530	-0.481415
-0.081329	0.345154	-0.498199
-0.051880	0.401154	-0.505676
-0.037537	0.345764	-0.502472
-0.024872	0.355530	-0.504150
-0.048218	0.335541	-0.526581
-0.037231	0.416718	-0.522156
-0.066833	0.439453	-0.520172
-0.075684	0.441895	-0.539856
-0.081482	0.401917	-0.556183
-0.077667	0.395966	-0.551758
-0.092621	0.355225	-0.566101
-0.096588	0.407410	-0.595245
-0.003967	0.440826	-0.599365
0.051117	0.403748	-0.609894
0.072174	0.343475	-0.611572
0.111084	0.274506	-0.607300
0.090942	0.269775	-0.632324
0.046387	0.322113	-0.637817
-0.039673	0.414581	-0.595551
-0.154724	0.349426	-0.621033
-0.209198	0.291290	-0.626526
-0.239868	0.308685	-0.632019
-0.239868	0.340729	-0.633850
-0.243530	0.403290	-0.610046
-0.254669	0.417480	-0.610352
-0.251007	0.395660	-0.615540
-0.227051	0.326538	-0.606689
-0.227661	0.407715	-0.612030
-0.128021	0.438385	-0.600433
-0.137939	0.453644	-0.593414
-0.165253	0.402374	-0.579834
-0.144501	0.354462	-0.587463
-0.116119	0.311127	-0.573425
-0.093384	0.339966	-0.563202
-0.075378	0.359497	-0.558167
-0.033417	0.360260	-0.563812
0.002289	0.283356	-0.567169
0.003204	0.267029	-0.548706
-0.004578	0.336914	-0.548096
-0.008087	0.397339	-0.530243
-0.041199	0.426788	-0.539703
-0.039825	0.406189	-0.506897
-0.039368	0.357208	-0.506744
-0.059967	0.322113	-0.505829
-0.125580	0.376892	-0.498657
-0.085907	0.368500	-0.493469
-0.081787	0.379486	-0.494690
-0.078735	0.337067	-0.500641
-0.071869	0.316925	-0.480957
-0.060883	0.293427	-0.473938
-0.057678	0.339813	-0.479431
-0.036163	0.406494	-0.466003
-0.023193	0.350494	-0.448608
-0.012665	0.313263	-0.456543
-0.009003	0.294647	-0.472412
0.033569	0.382080	-0.460663
0.046234	0.415649	-0.452881
0.021820	0.433044	-0.445099
0.009003	0.396423	-0.449829
-0.017090	0.376434	-0.447083
-0.086060	0.381927	-0.427856
-0.188599	0.413208	-0.433044
-0.282135	0.443420	-0.441437
-0.338898	0.451813	-0.428619
-0.368652	0.406342	-0.414276
-0.335999	0.371704	-0.420532
-0.245056	0.367584	-0.426178
-0.189972	0.385437	-0.411987
-0.148315	0.419006	-0.408325
-0.183105	0.372620	-0.408478
-0.156097	0.325165	-0.408173
-0.096741	0.375977	-0.417175
-0.048370	0.431824	-0.401611
-0.020142	0.462494	-0.407562
-0.040283	0.479736	-0.402222
-0.041199	0.437927	-0.392761
-0.028534	0.386658	-0.375366
-0.071259	0.456848	-0.387878
-0.071869	0.474701	-0.395355
-0.050659	0.512085	-0.382385
0.006256	0.482330	-0.376129
0.014801	0.483246	-0.379791
-0.023651	0.456543	-0.373383
-0.036011	0.507355	-0.382538
-0.030670	0.550079	-0.369873
0.005493	0.538177	-0.374298
0.020599	0.495911	-0.376434
0.059662	0.463562	-0.367279
0.071259	0.500488	-0.341949
0.055695	0.521545	-0.365753
0.018616	0.561829	-0.370026
-0.006866	0.590057	-0.366516
-0.026398	0.520935	-0.361481
-0.064392	0.469666	-0.360870
-0.134735	0.528412	-0.381470
-0.175629	0.574036	-0.370026
-0.225983	0.556335	-0.381775
-0.284119	0.515442	-0.365143
-0.284729	0.484924	-0.368958
-0.288849	0.465851	-0.382690
-0.260773	0.535889	-0.364685
-0.215759	0.588837	-0.358276
-0.189667	0.507812	-0.352936
-0.181274	0.461884	-0.363007
-0.160217	0.460205	-0.349426
-0.127411	0.515442	-0.351868
-0.091705	0.543060	-0.348358
-0.051117	0.610352	-0.346527
-0.005798	0.581055	-0.329895
-0.005341	0.545349	-0.314026
-0.015564	0.521393	-0.326538
-0.023041	0.604553	-0.316467
-0.047302	0.584412	-0.318756
-0.056000	0.533447	-0.318909
-0.049133	0.470276	-0.313721
-0.064087	0.410614	-0.286713
-0.129852	0.454254	-0.298767
-0.183563	0.491791	-0.289459
-0.245667	0.531158	-0.275574
-0.281830	0.460358	-0.276642
-0.211639	0.408325	-0.258484
-0.133209	0.379181	-0.270691
-0.049896	0.450897	-0.253448
0.038605	0.518646	-0.230103
0.067444	0.510101	-0.251465
0.100403	0.462189	-0.231628
0.091248	0.409241	-0.217590
-0.001526	0.454407	-0.220795
-0.023193	0.437927	-0.216827
-0.065918	0.436554	-0.220337
-0.114594	0.394440	-0.220642
-0.136719	0.369110	-0.232239
-0.155640	0.313416	-0.209045
-0.143433	0.346680	-0.210724
-0.116119	0.405731	-0.186462
-0.030670	0.400848	-0.171509
0.008698	0.349884	-0.182800
0.001526	0.360565	-0.178375
-0.012207	0.366058	-0.158386
-0.044556	0.426331	-0.174255
-0.059967	0.490875	-0.154419
-0.085754	0.464935	-0.138702
-0.113068	0.397491	-0.143433
-0.135498	0.346680	-0.141144
-0.142365	0.413513	-0.138702
-0.133667	0.431213	-0.113983
-0.169678	0.372467	-0.117340
-0.217438	0.320740	-0.108185
-0.183258	0.285950	-0.108032
-0.160522	0.326385	-0.090485
-0.137482	0.373535	-0.084534
-0.115051	0.414276	-0.080719
-0.078583	0.341492	-0.059814
-0.043945	0.314636	-0.056458
-0.004120	0.293274	-0.060883
0.017242	0.329590	-0.047150
0.042572	0.358124	-0.034943
0.079956	0.413818	-0.016327
0.084381	0.350952	-0.004730
0.094452	0.289001	0.004578
0.111237	0.312500	-0.007782
0.096588	0.338287	0.001221
0.056915	0.378418	0.014343
-0.024872	0.316010	0.008240
-0.124817	0.281067	0.025787
-0.200653	0.217590	0.020142
-0.275421	0.276794	0.053101
-0.349274	0.285187	0.051880
-0.378418	0.349426	0.059509
-0.345917	0.287628	0.061188
-0.346222	0.249481	0.078278
-0.310974	0.256500	0.066681
-0.287781	0.320129	0.073090
-0.252838	0.369110	0.079956
-0.207062	0.398865	0.084839
-0.142365	0.345612	0.093231
-0.099640	0.280609	0.092773
-0.062408	0.355377	0.087738
-0.014038	0.346680	0.084381
0.030823	0.345154	0.093842
0.072632	0.316315	0.092468
0.118256	0.305023	0.091248
0.150757	0.260010	0.102997
0.155182	0.300140	0.103302
0.124359	0.333099	0.107727
0.070496	0.271149	0.108948
0.002441	0.256805	0.104065
-0.033875	0.244904	0.099182
-0.079651	0.281219	0.091248
-0.105286	0.315094	0.097351
-0.188141	0.369873	0.091095
-0.225830	0.363617	0.099182
-0.265961	0.322418	0.116119
-0.283508	0.247040	0.097198
-0.287476	0.321960	0.094757
-0.248108	0.335846	0.100250
-0.210419	0.316925	0.093079
-0.162048	0.263672	0.104065
-0.132446	0.188751	0.105133
-0.090942	0.188904	0.112305
-0.056610	0.232391	0.126648
-0.022125	0.295868	0.136719
-0.046082	0.197754	0.129852
-0.110321	0.132141	0.117035
-0.129852	0.108643	0.132446
-0.138855	0.131073	0.148621
-0.158386	0.149841	0.129700
-0.179901	0.169678	0.136414
-0.125885	0.101929	0.145416
-0.053864	0.022736	0.151062
-0.040436	0.063934	0.139313
0.008545	0.175476	0.143585
0.058594	0.232544	0.157928
0.087128	0.226593	0.156403
0.098877	0.244598	0.155945
0.132599	0.320587	0.166626
0.119324	0.499115	0.152130
0.147247	0.707397	0.181732
0.151367	0.914917	0.179596
0.125275	1.009521	0.182648
0.105133	1.201935	0.193787
0.045929	1.469879	0.188446
-0.006104	1.860809	0.187378
-0.068054	2.273560	0.185242
-0.104980	2.664032	0.194550
-0.160828	2.655182	0.233307
-0.210876	2.656708	0.224609
-0.271149	2.652893	0.187225
-0.304718	2.655945	0.201416
-0.326080	2.655182	0.208282
-0.346680	2.651215	0.211945
-0.325012	2.653351	0.204163
-0.298767	2.651367	0.211334
-0.256348	2.658234	0.218964
-0.200958	2.654114	0.248108
-0.146484	2.647705	0.243530
-0.129395	2.657318	0.241699
-0.110931	2.651062	0.249786
-0.103149	2.653198	0.252380
-0.127563	2.648621	0.243378
-0.131531	2.650909	0.256958
-0.122528	2.250977	0.261383
-0.130463	1.781921	0.253601
-0.161896	1.332397	0.248260
-0.189362	0.975800	0.216064
-0.135651	0.663452	0.237427
-0.087738	0.301056	0.219727
-0.036469	-0.053711	0.207672
0.064545	-0.383453	0.217285
0.169220	-0.589752	0.234985
0.214539	-0.726471	0.231323
0.227509	-0.735931	0.233154
0.188751	-0.784454	0.250397
0.103760	-0.749207	0.223846
0.094147	-0.633087	0.214996
0.045166	-0.443420	0.229340
-0.008087	-0.278168	0.214539
-0.052948	-0.143127	0.214386
-0.083466	-0.075684	0.229492
-0.128784	0.001373	0.242920
-0.236359	0.113220	0.231934
-0.388641	0.271606	0.231171
-0.580750	0.329590	0.227661
-0.743103	0.337524	0.251007
-0.884705	0.346222	0.255737
-0.956268	0.278625	0.265045
-0.937042	0.323334	0.257568
-0.926056	0.383606	0.293121
-1.015015	0.428467	0.299683
-1.102295	0.354309	0.293884
-1.146393	0.308990	0.289307
-0.951691	0.330353	0.294495
-0.394135	0.400848	0.313263
0.463104	0.444794	0.309601
1.512451	0.445557	0.343933
2.527771	0.422211	0.371552
2.678375	0.365143	0.350800
2.675629	0.442657	0.358582
2.689667	0.442352	0.368042
2.679138	0.442505	0.371552
2.678070	0.391083	0.354614
1.604004	0.391235	0.361938
0.223541	0.357666	0.368958
-1.179199	0.360718	0.362701
-2.442627	0.435028	0.369110
-2.623596	0.382538	0.359802
-2.627106	0.327759	0.358429
-2.627869	0.319061	0.364990
-2.620850	0.395813	0.349121
-2.616425	0.439453	0.342102
-2.617798	0.484009	0.350037
-2.243805	0.427399	0.354004
-1.349335	0.374908	0.359344
-0.514526	0.372314	0.347748
0.223389	0.444183	0.334625
0.874939	0.462189	0.342712
1.501617	0.410004	0.349884
2.065582	0.368500	0.351105
2.580719	0.328522	0.342102
2.677155	0.349426	0.349579
2.686768	0.396423	0.361176
2.682343	0.453949	0.375366
2.671204	0.366516	0.352020
2.686005	0.364838	0.362244
2.040710	0.347137	0.345001
0.982666	0.418549	0.351410
-0.194702	0.417633	0.361023
-1.312103	0.453033	0.370026
-2.229462	0.476532	0.389099
-2.612457	0.403900	0.383301
-2.632446	0.429382	0.375977
-2.622986	0.463257	0.393524
-2.610779	0.454559	0.384064
-1.984406	0.407715	0.381165
-1.237488	0.377502	0.385590
-0.513916	0.337524	0.424500
0.092468	0.374908	0.448303
0.602722	0.420990	0.466766
1.005859	0.418396	0.503540
1.250610	0.396271	0.554810
1.329193	0.367889	0.603027
1.283417	0.378571	0.655365
1.066742	0.404053	0.756226
0.659332	0.468903	0.811462
0.170135	0.461273	0.883789
-0.374146	0.438385	0.984039
-0.884094	0.379181	1.075287
-1.250000	0.453033	1.190186
-1.382751	0.485687	1.260834
-1.321411	0.464020	1.356354
-1.259003	0.397339	1.442261
-1.127930	0.384369	1.533661
-0.822906	0.389862	1.618042
-0.442963	0.446930	1.714020
0.038300	0.502625	1.811829
0.592194	0.431061	1.871643
1.086121	0.389404	1.920013
1.450043	0.354004	1.972504
1.607056	0.393829	2.026672
1.500397	0.419769	2.075958
1.158295	0.488281	2.116089
0.727234	0.472565	2.173004
0.310364	0.423431	2.232361
-0.125122	0.419159	2.253723
-0.559692	0.482635	2.287292
-0.899048	0.513916	2.317200
-1.105499	0.466461	2.308350
-1.152344	0.426636	2.350311
-1.022644	0.393829	2.364960
-0.612488	0.391235	2.395782
-0.082550	0.422668	2.411041
0.293121	0.477295	2.437592
0.519257	0.417023	2.426910
0.637512	0.397491	2.416840
0.692444	0.426788	2.390442
0.754242	0.449066	2.403107
0.585175	0.491791	2.375793
0.397644	0.490570	2.374420
0.294647	0.451965	2.342987
0.011139	0.387726	2.350464
-0.491486	0.497589	2.312622
-1.040802	0.542145	2.304687
-1.463165	0.512390	2.288818
-1.569824	0.489044	2.270508
-1.380157	0.435791	2.250977
-1.086426	0.412140	2.244873
-0.776825	0.437317	2.235260
-0.486298	0.499878	2.258759
-0.266571	0.468140	2.230072
-0.269165	0.391846	2.198944
-0.279846	0.392609	2.183533
-0.075684	0.449982	2.157135
0.249329	0.494232	2.133026
0.713348	0.541534	2.117004
1.078186	0.544434	2.104492
1.343689	0.498505	2.065430
1.418915	0.480499	2.055817
1.119232	0.548553	2.022858
0.608673	0.592346	2.025299
-0.005035	0.538025	2.001495
-0.287628	0.504608	1.971893
-0.285797	0.483246	1.950684
-0.042267	0.476227	1.906891
0.314178	0.530853	1.902618
0.240784	0.591431	1.882019
-0.194550	0.507507	1.840668
-0.550079	0.490723	1.815796
-0.741882	0.488892	1.824341
-0.991974	0.553436	1.837616
-1.117706	0.594177	1.847839
-1.081085	0.614319	1.858215
-1.051178	0.590057	1.878052
-1.099548	0.491791	1.872406
-0.949097	0.515442	1.878204
-0.548553	0.585480	1.893158
0.114288	0.602875	1.906433
0.779419	0.550079	1.878662
1.263885	0.516052	1.913300
1.459961	0.474548	1.933136
1.555939	0.505066	1.995850
1.540985	0.522614	2.019958
1.236420	0.575867	2.031555
0.706482	0.505676	2.030029
0.189362	0.484619	2.066498
-0.369263	0.546112	2.123413
-1.040192	0.572205	2.123566
-1.597748	0.599518	2.140198
-1.850281	0.620270	2.153168
-1.948853	0.610352	2.197113
-1.839752	0.547028	2.208557
-1.461029	0.605927	2.185516
-0.982208	0.659637	2.177582
-0.471344	0.653076	2.149506
-0.076294	0.630646	2.117615
0.191956	0.595703	2.107849
0.118713	0.578156	2.075043
-0.109253	0.604095	2.055206
-0.110474	0.644073	2.010345
0.186615	0.628204	1.979218
0.583344	0.621033	1.933899
1.060333	0.603790	1.879425
1.658325	0.620728	1.840057
2.067261	0.687408	1.818542
2.171021	0.761261	1.816711
2.006073	0.735016	1.789703
1.585541	0.691681	1.787415
0.920410	0.662384	1.768036
0.338593	0.747681	1.742554
0.067749	0.764160	1.730347
-0.152435	0.752716	1.722565
-0.538940	0.721893	1.736908
-1.000519	0.698700	1.753387
-1.380920	0.691376	1.770020
-1.473541	0.705109	1.795502
-1.484528	0.783539	1.803894
-1.583099	0.731812	1.817169
-1.690521	0.692749	1.788025
-1.550903	0.699615	1.783142
-1.349792	0.773163	1.824799
-1.218262	0.785217	1.812134
-1.127319	0.834351	1.789093
-0.952301	0.819550	1.800995
-0.715332	0.776672	1.808929
-0.455017	0.806732	1.796875
-0.080261	0.838623	1.784363
0.274658	0.852509	1.753845
0.508118	0.805359	1.748199
0.776672	0.785065	1.730042
1.025391	0.754089	1.708221
1.215057	0.811615	1.687775
1.345367	0.868225	1.706238
1.388397	0.910645	1.696472
1.262817	0.827026	1.634521
1.112976	0.811615	1.638336
0.876465	0.827332	1.640167
0.574646	0.877686	1.652985
0.191498	0.936737	1.644592
-0.094910	0.941772	1.642303
-0.286713	0.920563	1.675415
-0.481720	0.850983	1.681213
-0.638275	0.916290	1.690979
-0.665283	0.943756	1.676636
-0.415344	0.977631	1.687317
-0.206604	0.888672	1.693268
-0.217896	0.858307	1.686554
-0.369415	0.832672	1.693268
-0.557404	0.879974	1.656189
-0.710144	0.951843	1.649170
-0.675507	0.924072	1.637115
-0.484619	0.858917	1.560669
-0.214233	0.861969	1.509399
-0.176392	0.939026	1.500549
-0.324402	0.969849	1.436462
-0.571594	1.016846	1.417084
-0.867920	0.971222	1.378326
-0.989532	0.960236	1.366119
-0.878754	0.929260	1.332703
-0.550079	0.993347	1.320343
0.019226	1.015930	1.319427
0.607758	0.954437	1.313477
0.994110	0.911865	1.349182
1.240692	0.859222	1.333466
1.464386	0.857544	1.366119
1.432800	0.877533	1.371002
1.159821	0.924683	1.404419
0.739136	0.855408	1.413116
0.203094	0.814819	1.442261
-0.340271	0.837097	1.424866
-0.787201	0.874023	1.436768
-1.007996	0.908203	1.429596
-1.145172	0.893707	1.447601
-1.203766	0.820923	1.427612
-1.233673	0.742340	1.420135
-1.222229	0.776062	1.367340
-1.073914	0.827026	1.352692
-0.849762	0.780029	1.306915
-0.594330	0.726929	1.253510
-0.319672	0.687408	1.232452
-0.021362	0.608215	1.167603
0.323181	0.634003	1.122284
0.727081	0.658112	1.092529
1.151733	0.679932	1.061249
1.479950	0.588837	0.988922
1.609650	0.531921	0.941162
1.419678	0.573730	0.904999
0.971832	0.630341	0.865936
0.323486	0.676117	0.821533
-0.411530	0.640106	0.769653
-0.947723	0.594635	0.756073
-1.254272	0.492859	0.720215
-1.322479	0.568390	0.675964
-1.141663	0.595398	0.645142
-0.808105	0.563660	0.597992
-0.378876	0.514221	0.584412
0.104370	0.451813	0.564423
0.563202	0.430908	0.549469
0.865479	0.458069	0.537415
0.962524	0.488586	0.527191
0.785370	0.424500	0.496674
0.471191	0.393372	0.470734
0.148315	0.402069	0.457764
-0.217743	0.483551	0.470276
-0.529785	0.501251	0.443115
-0.782013	0.523682	0.428467
-0.927277	0.497589	0.404510
-0.934906	0.445557	0.387268
-0.847778	0.428772	0.367737
-0.658264	0.493774	0.343933
-0.425415	0.488129	0.341492
-0.196228	0.391846	0.287628
0.023041	0.346222	0.251007
0.187378	0.279388	0.210724
0.313110	0.318146	0.201569
0.380859	0.366821	0.179749
0.354614	0.416565	0.143585
0.236816	0.327759	0.104675
0.042267	0.289459	0.065765
-0.131073	0.299072	0.031891
-0.311279	0.372314	0.007019
-0.444946	0.399017	-0.044708
-0.495605	0.442047	-0.055695
-0.417938	0.400085	-0.087738
-0.265503	0.315552	-0.108643
-0.125580	0.381927	-0.146790
-0.019379	0.410461	-0.174408
0.031281	0.415039	-0.202942
0.031128	0.360870	-0.215302
-0.000916	0.338745	-0.233612
-0.078735	0.291595	-0.246429
-0.172729	0.320435	-0.257721
-0.206604	0.363312	-0.262451
-0.227661	0.381317	-0.250244
-0.265961	0.320892	-0.278473
-0.296173	0.297394	-0.252533
-0.304718	0.332947	-0.256348
-0.469818	0.388336	-0.258942
-0.574493	0.450287	-0.242767
-0.406494	0.430756	-0.251770
-0.019073	0.384827	-0.259247
0.455017	0.341949	-0.256805
1.059723	0.391846	-0.276947
1.733093	0.440369	-0.279083
2.230988	0.399933	-0.287781
2.366028	0.376282	-0.305328
1.967468	0.328217	-0.317535
1.094055	0.307922	-0.339050
-0.128632	0.343628	-0.342865
-1.338196	0.418549	-0.354309
-2.288361	0.377502	-0.365906
-2.619781	0.308990	-0.403748
-2.622986	0.313110	-0.440979
-2.622528	0.366058	-0.450134
-2.254791	0.403595	-0.478058
-1.676636	0.453644	-0.525360
-1.100769	0.447998	-0.567474
-0.556030	0.391846	-0.588989
-0.071869	0.381470	-0.634308
0.349274	0.435944	-0.675812
0.706329	0.448914	-0.718842
0.932312	0.418396	-0.751190
1.091614	0.386200	-0.784149
1.111755	0.345612	-0.823822
1.074524	0.366058	-0.854797
0.980835	0.362549	-0.875092
0.920105	0.434875	-0.890350
0.802612	0.367584	-0.901337
0.704346	0.345306	-0.918579
0.617523	0.365295	-0.901031
0.509186	0.420532	-0.893555
0.411835	0.473480	-0.870209
0.304413	0.483551	-0.836945
0.240173	0.446625	-0.800018
0.185547	0.394440	-0.780182
0.160980	0.468750	-0.746765
0.155334	0.475006	-0.698395
0.115814	0.450134	-0.648041
0.034943	0.413055	-0.614319
-0.048523	0.379791	-0.554962
-0.164337	0.328217	-0.522766
-0.331268	0.370483	-0.490112
-0.513153	0.434418	-0.452423
-0.659180	0.423889	-0.407410
-0.847778	0.344238	-0.419464
-0.966949	0.339661	-0.384369
-1.045074	0.363159	-0.382233
-1.067505	0.432587	-0.360870
-1.034088	0.470886	-0.336456
-0.934143	0.422974	-0.334930
-0.768738	0.389099	-0.321960
-0.610809	0.323944	-0.304871
-0.446320	0.403595	-0.303040
-0.242767	0.433807	-0.284271
-0.069580	0.416565	-0.259552
0.034027	0.391235	-0.267944
0.105438	0.353241	-0.261841
0.165558	0.350494	-0.235901
0.267029	0.397644	-0.237427
0.405121	0.436859	-0.240021
0.522156	0.350952	-0.232391
0.569763	0.347290	-0.221252
0.505219	0.351562	-0.229034
0.443573	0.416565	-0.243530
0.390778	0.455780	-0.235138
0.384827	0.478210	-0.248566
0.355225	0.447540	-0.235138
0.307312	0.375366	-0.232544
0.234985	0.415955	-0.244751
0.166321	0.458984	-0.260010
0.108795	0.461273	-0.262604
0.033417	0.417938	-0.265350
-0.065460	0.362396	-0.278778
-0.166473	0.309296	-0.269623
-0.278778	0.351562	-0.274811
-0.394592	0.382843	-0.281372
-0.484009	0.419312	-0.275879
-0.576477	0.356293	-0.302582
-0.585327	0.331116	-0.289154
-0.600891	0.347748	-0.296936
-0.561371	0.397491	-0.276642
-0.502167	0.436401	-0.308990
-0.453033	0.454407	-0.310059
-0.363007	0.402374	-0.324860
-0.301056	0.334015	-0.323334
-0.253601	0.401764	-0.330505
-0.195923	0.451050	-0.342865
-0.122375	0.447845	-0.338440
-0.099030	0.402527	-0.335083
-0.065002	0.380402	-0.356445
-0.053864	0.325775	-0.348511
-0.026093	0.369873	-0.370331
0.011597	0.406036	-0.368652
0.068207	0.373688	-0.376282
0.111694	0.322113	-0.405273
0.174103	0.300293	-0.413208
0.245819	0.373993	-0.418396
0.271301	0.399475	-0.429840
0.298157	0.453186	-0.420837
0.277252	0.449677	-0.444183
0.245056	0.448914	-0.451508
0.186157	0.404510	-0.445404
0.081635	0.447693	-0.461273
0.034790	0.451508	-0.465546
-0.034943	0.462799	-0.467377
-0.085449	0.426178	-0.452576
-0.096283	0.369415	-0.467834
-0.116119	0.360107	-0.466461
-0.124359	0.357361	-0.456085
-0.132141	0.429687	-0.439606
-0.180817	0.354309	-0.463867
-0.172272	0.351410	-0.446625
-0.191040	0.358887	-0.451813
-0.188141	0.405579	-0.450134
-0.187073	0.440826	-0.443268
-0.160980	0.466461	-0.415802
-0.147858	0.435028	-0.437622
-0.112457	0.371094	-0.430298
-0.114594	0.407562	-0.434113
-0.111237	0.438995	-0.439758
-0.092621	0.463104	-0.441132
-0.105438	0.403137	-0.447388
-0.112152	0.344696	-0.431519
-0.111542	0.305328	-0.439758
-0.112152	0.345306	-0.430756
-0.104980	0.382843	-0.446625
-0.085754	0.406647	-0.435181
-0.102844	0.329132	-0.424194
-0.139923	0.322723	-0.453339
-0.148163	0.356750	-0.454712
-0.162811	0.403442	-0.441589
-0.179596	0.417480	-0.450897
-0.206909	0.452423	-0.465240
-0.201569	0.424957	-0.466156
-0.222015	0.368347	-0.458832
-0.216522	0.473480	-0.454865
-0.238953	0.527191	-0.470581
-0.215759	0.473938	-0.467682
-0.224304	0.394135	-0.474396
-0.216980	0.339813	-0.490265
-0.196075	0.305023	-0.499573
-0.149231	0.318604	-0.496216
-0.103149	0.359192	-0.513763
-0.064240	0.327759	-0.507355
-0.046234	0.267944	-0.516510
0.003510	0.262756	-0.514984
0.023804	0.339050	-0.519257
0.034332	0.395050	-0.514374
0.055084	0.426636	-0.509491
0.041962	0.405884	-0.524597
0.032501	0.385742	-0.504761
0.019226	0.351868	-0.514984
-0.021820	0.416260	-0.517120
-0.046539	0.468597	-0.529175
-0.056152	0.429840	-0.524750
-0.075836	0.393372	-0.520935
-0.054626	0.303955	-0.520782
-0.058136	0.295868	-0.513000
-0.077057	0.332642	-0.522308
-0.055695	0.352631	-0.509949
-0.047760	0.303345	-0.539246
-0.037689	0.297546	-0.525208
-0.052643	0.307312	-0.512238
-0.042877	0.348969	-0.528107
-0.038300	0.397491	-0.528870
-0.022125	0.447693	-0.512543
-0.000610	0.386963	-0.530701
0.006409	0.337524	-0.524750
-0.018921	0.384827	-0.542450
-0.034180	0.424957	-0.540161
-0.064545	0.453033	-0.525970
-0.124664	0.369263	-0.554352
-0.126343	0.343323	-0.553436
-0.158539	0.288391	-0.561523
-0.161133	0.330048	-0.553284
-0.152130	0.352783	-0.557861
-0.168915	0.373840	-0.569153
-0.189362	0.310059	-0.572510
-0.201721	0.276031	-0.578461
-0.224457	0.307922	-0.603790
-0.203552	0.409088	-0.590363
-0.201111	0.435028	-0.603027
-0.205841	0.426025	-0.609894
-0.184631	0.366058	-0.610352
-0.165253	0.337982	-0.612488
-0.147552	0.410614	-0.623932
-0.105133	0.449982	-0.633698
-0.078125	0.428162	-0.646210
-0.026245	0.393829	-0.650787
-0.014343	0.353546	-0.659332
-0.005341	0.323639	-0.678101
-0.002289	0.357056	-0.689697
0.005035	0.417633	-0.699615
-0.016785	0.374146	-0.697937
-0.041962	0.350189	-0.714569
-0.053864	0.356903	-0.712128
-0.063629	0.405121	-0.718842
-0.060120	0.419769	-0.721130
-0.052185	0.484314	-0.746002
-0.008240	0.451050	-0.754242
0.029602	0.424805	-0.758057
0.019836	0.426636	-0.764923
-0.023804	0.478668	-0.799866
-0.051422	0.516663	-0.796661
-0.119781	0.478668	-0.818329
-0.154266	0.470886	-0.813599
-0.187836	0.404358	-0.824585
-0.200806	0.430908	-0.832214
-0.200195	0.470123	-0.847321
-0.147552	0.588074	-0.838928
-0.146179	0.511627	-0.876160
-0.125885	0.493317	-0.883179
-0.122375	0.460815	-0.906372
-0.131226	0.541840	-0.919037
-0.135498	0.571289	-0.921326
-0.160370	0.613403	-0.930023
-0.150604	0.578308	-0.939941
-0.135040	0.517120	-0.942078
-0.088806	0.592499	-0.970001
-0.065765	0.604248	-0.977478
-0.016785	0.612640	-0.984344
0.006866	0.534210	-1.018219
0.023041	0.523834	-1.018524
-0.004730	0.467834	-1.043549
-0.024872	0.522614	-1.042633
-0.046082	0.599823	-1.053467
-0.071869	0.562134	-1.078949
-0.083923	0.516205	-1.100006
-0.094910	0.475006	-1.132812
-0.104828	0.533295	-1.139832
-0.071411	0.587463	-1.133575
-0.097198	0.651398	-1.157227
-0.077362	0.641174	-1.165924
-0.078583	0.594177	-1.215210
-0.070190	0.561829	-1.213379
-0.084076	0.669708	-1.243134
-0.120087	0.682831	-1.267853
-0.110168	0.664215	-1.279907
-0.129852	0.601959	-1.306915
-0.148163	0.570374	-1.339417
-0.125275	0.500031	-1.347351
-0.167084	0.489044	-1.400757
-0.136108	0.521851	-1.385956
-0.140839	0.498657	-1.430206
-0.138702	0.447388	-1.415405
-0.121918	0.434265	-1.476440
-0.060883	0.512543	-1.469269
-0.052948	0.555878	-1.503143
-0.014038	0.580597	-1.520386
0.009613	0.536499	-1.532135
0.010071	0.490417	-1.558228
0.002747	0.501556	-1.573792
-0.046844	0.554810	-1.589050
-0.066528	0.561371	-1.624451
-0.068665	0.535126	-1.624603
-0.086212	0.464630	-1.632385
-0.125885	0.377350	-1.656647
-0.115509	0.394897	-1.681519
-0.119476	0.435181	-1.680756
-0.101929	0.471649	-1.679840
-0.113068	0.425415	-1.697693
-0.075378	0.400696	-1.704865
-0.064240	0.390778	-1.723938
-0.046082	0.436096	-1.730347
-0.035553	0.497894	-1.719666
-0.055847	0.501404	-1.729736
-0.055542	0.457306	-1.741028
-0.045776	0.415039	-1.745911
-0.070190	0.485535	-1.759949
-0.058441	0.503845	-1.782684
-0.050964	0.517426	-1.778259
-0.031433	0.460358	-1.772766
-0.069580	0.400391	-1.780090
-0.068359	0.332031	-1.800537
-0.084534	0.333710	-1.797638
-0.110779	0.369873	-1.801453
-0.126495	0.348206	-1.808624
-0.137024	0.318451	-1.811829
-0.190277	0.275574	-1.815948
-0.190277	0.326691	-1.800690
-0.178680	0.383911	-1.815491
-0.188599	0.437775	-1.811981
-0.147400	0.453339	-1.803131
-0.145721	0.386505	-1.795197
-0.099182	0.389709	-1.777191
-0.071259	0.449829	-1.784821
-0.045471	0.454559	-1.767731
-0.036774	0.411530	-1.773376
-0.043640	0.346375	-1.779633
-0.045471	0.314331	-1.780548
-0.068817	0.292511	-1.763000
-0.092163	0.311737	-1.750793
-0.091095	0.394745	-1.719513
-0.139008	0.301971	-1.713257
-0.154114	0.272675	-1.711884
-0.161591	0.278931	-1.705322
-0.155945	0.343018	-1.675415
-0.172119	0.375214	-1.653595
-0.200806	0.425873	-1.632233
-0.203857	0.388794	-1.621704
-0.185089	0.361938	-1.601105
-0.167542	0.340271	-1.574707
-0.148315	0.398560	-1.565552
-0.100250	0.419312	-1.557770
-0.070343	0.380249	-1.512299
-0.056305	0.333862	-1.506500
-0.024109	0.282593	-1.480560
-0.014648	0.330505	-1.448822
-0.030670	0.372009	-1.440582
-0.040436	0.393829	-1.424408
-0.038300	0.320129	-1.399689
-0.059204	0.273743	-1.373291
-0.066833	0.321350	-1.339417
-0.057526	0.366211	-1.326904
-0.075836	0.422058	-1.286621
-0.066223	0.433807	-1.287994
-0.085449	0.390015	-1.268463
-0.087585	0.363007	-1.216583
-0.137482	0.434265	-1.228180
-0.170288	0.425873	-1.203918
-0.169525	0.420380	-1.167755
-0.212860	0.359039	-1.168976
-0.184937	0.332794	-1.154938
-0.194397	0.266724	-1.139832
-0.170288	0.294342	-1.105957
-0.147095	0.328522	-1.077728
-0.107422	0.319672	-1.037750
-0.047760	0.271759	-1.030273
0.000000	0.238495	-1.027374
0.019684	0.285950	-1.013947
0.044098	0.293274	-0.999451
0.066528	0.311279	-0.966949
0.061798	0.282898	-0.958557
0.051117	0.264893	-0.924988
0.027161	0.204773	-0.910492
-0.016632	0.274963	-0.878754
-0.052032	0.301819	-0.847931
-0.075989	0.262909	-0.821686
-0.085449	0.227509	-0.800018
-0.085754	0.191956	-0.785980
-0.081024	0.202942	-0.769196
-0.074921	0.256958	-0.773773
-0.030670	0.411682	-0.716095
-0.022583	0.445709	-0.701752
-0.035400	0.585175	-0.680084
-0.059509	0.733032	-0.662994
-0.053406	0.978851	-0.635681
-0.066986	1.183014	-0.617371
-0.084229	1.437073	-0.605011
-0.075073	1.671753	-0.555115
-0.071716	1.937714	-0.548248
-0.072632	2.358704	-0.525513
-0.056000	2.648315	-0.513153
-0.051575	2.646484	-0.505524
-0.058441	2.651367	-0.472870
-0.102386	2.648773	-0.446777
-0.143433	2.655792	-0.434570
-0.192719	2.652893	-0.398560
-0.202942	2.653351	-0.372467
-0.224304	2.657318	-0.352325
-0.276031	2.653503	-0.354156
-0.271606	2.654724	-0.318146
-0.265961	2.655945	-0.290375
-0.227661	2.658539	-0.285645
-0.172424	2.655640	-0.272675
-0.059204	2.661285	-0.238647
0.051727	2.662506	-0.206451
0.122528	2.657013	-0.194092
0.136871	2.650146	-0.197906
0.137177	2.188721	-0.183258
0.166473	1.807556	-0.151825
0.127106	1.377411	-0.122681
0.102692	0.917206	-0.099487
0.049133	0.482788	-0.086823
0.041962	0.212860	-0.054932
0.031738	-0.016937	-0.027313
0.013428	-0.327759	-0.002289
0.001984	-0.545959	0.011902
-0.015106	-0.652466	0.051117
-0.067902	-0.614624	0.068054
-0.103912	-0.488129	0.097809
-0.173035	-0.309296	0.128784
-0.180817	-0.200653	0.174408
-0.166931	-0.148621	0.201874
-0.187378	-0.074005	0.234833
-0.203857	0.070343	0.239868
-0.229340	0.191803	0.275879
-0.314178	0.257721	0.311432
-0.430756	0.286407	0.329437
-0.503693	0.267334	0.360107
-0.545654	0.353546	0.407562
-0.606689	0.390930	0.428772
-0.656891	0.470276	0.479126
-0.724640	0.416107	0.503387
-0.738831	0.389252	0.531616
-0.618134	0.381927	0.562439
-0.463104	0.442963	0.591736
-0.318298	0.502472	0.615082
-0.162354	0.525360	0.634003
0.019379	0.509338	0.674744
0.276642	0.460358	0.703278
0.628662	0.498199	0.712585
1.082001	0.493927	0.713654
1.554108	0.479584	0.742645
1.963959	0.420837	0.759735
2.204285	0.335846	0.775604
2.163239	0.273132	0.777435
1.853638	0.331879	0.779114
1.232910	0.378876	0.805511
0.504608	0.464783	0.806274
-0.366974	0.412140	0.796661
-1.223602	0.402985	0.822601
-1.930542	0.409088	0.839844
-2.382355	0.432281	0.815735
-2.610626	0.483704	0.803680
-2.616882	0.491638	0.822296
-2.627716	0.441284	0.826111
-2.622986	0.392609	0.815277
-2.006073	0.461731	0.804443
-0.872192	0.491486	0.821228
0.533905	0.492096	0.820618
1.988525	0.432434	0.798035
2.674561	0.391998	0.777283
2.683258	0.375671	0.772552
2.682953	0.421295	0.774841
2.675476	0.480499	0.772247
1.593781	0.440521	0.769958
0.122223	0.380554	0.740204
-1.200104	0.331726	0.726013
-2.153320	0.416718	0.728455
-2.621460	0.452576	0.715637
-2.620392	0.523529	0.705872
-2.630310	0.487518	0.667114
-2.366791	0.428925	0.667114
-1.933746	0.429382	0.638275
-1.443024	0.528412	0.600739
-0.899506	0.548248	0.569458
-0.303955	0.500336	0.543060
0.312195	0.454559	0.523376
0.821686	0.416870	0.524139
1.204987	0.412750	0.499115
1.482086	0.457306	0.519104
1.623535	0.519257	0.507965
1.727600	0.457764	0.514984
1.840668	0.413666	0.513916
1.940002	0.400696	0.533905
1.895294	0.454407	0.587158
1.729889	0.480194	0.616913
1.470337	0.538483	0.697937
1.029205	0.484772	0.781708
0.412903	0.415497	0.851440
-0.173798	0.469360	0.918427
-0.763855	0.498047	0.993805
-1.332397	0.554504	1.126862
-1.754608	0.484772	1.193695
-2.064514	0.428314	1.274567
-2.265778	0.392761	1.396942
-2.345428	0.421753	1.465912
-2.266388	0.471344	1.575317
-2.007751	0.475922	1.679077
-1.604919	0.410309	1.750031
-1.044312	0.408020	1.823425
-0.417938	0.457764	1.890717
0.293884	0.503235	1.959381
0.864105	0.556793	2.014923
1.328735	0.554352	2.086945
1.677246	0.539398	2.174530
1.774902	0.492554	2.202911
1.684113	0.561676	2.223969
1.263733	0.581360	2.260437
0.610657	0.550232	2.291260
-0.161133	0.498352	2.302551
-0.718994	0.486298	2.301941
-0.993805	0.442352	2.343750
-1.044006	0.457764	2.328339
-0.884857	0.524750	2.339935
-0.621490	0.485382	2.328339
-0.208130	0.463562	2.295074
0.261841	0.458679	2.298126
0.553284	0.502625	2.225800
0.589752	0.544586	2.189941
0.428925	0.585175	2.158661
0.214386	0.555420	2.126465
0.005951	0.523834	2.079773
-0.185547	0.548706	2.051544
-0.307159	0.595856	2.001801
-0.314941	0.612183	1.979980
-0.263977	0.551147	1.957550
-0.250244	0.509186	1.944427
-0.368500	0.464478	1.930084
-0.452576	0.498199	1.908569
-0.572968	0.530548	1.906891
-0.675354	0.589447	1.895905
-0.661621	0.509338	1.876221
-0.531616	0.473328	1.857605
-0.359039	0.470886	1.845703
-0.229645	0.531616	1.829681
0.063629	0.588226	1.825714
0.379639	0.621948	1.820984
0.638580	0.579376	1.820374
0.890503	0.521851	1.814575
1.056061	0.567322	1.802826
1.160278	0.561371	1.755219
1.006775	0.586548	1.737671
0.753326	0.553436	1.717224
0.417328	0.512238	1.704254
-0.054626	0.480652	1.685181
-0.624542	0.548553	1.683807
-1.108246	0.582581	1.657867
-1.201630	0.555725	1.624908
-1.089172	0.518188	1.612244
-0.978851	0.500336	1.600037
-0.764008	0.545654	1.546021
-0.462189	0.579681	1.499939
-0.166626	0.621948	1.438904
0.195923	0.626221	1.373291
0.488739	0.614624	1.325073
0.671844	0.565033	1.277466
0.801239	0.622711	1.184845
0.967865	0.627289	1.160889
1.271820	0.631561	1.160126
1.244354	0.618896	1.141052
0.669556	0.569305	1.167603
-0.265198	0.546570	1.218109
-1.323395	0.584106	1.332245
-2.109985	0.677490	1.427155
-2.386322	0.603638	1.532440
-2.297821	0.554199	1.627655
-1.994019	0.565643	1.732178
-1.785583	0.614166	1.819458
-1.473236	0.641479	1.905365
-1.041412	0.678406	1.944885
-0.397491	0.659485	1.999969
0.305939	0.630493	2.048035
0.893555	0.646210	2.083435
1.396942	0.695496	2.100220
1.832581	0.695648	2.134552
2.205811	0.671844	2.133179
2.173767	0.651398	2.154236
1.643219	0.609589	2.181396
0.956726	0.660553	2.196960
0.304871	0.690155	2.190094
-0.250244	0.734100	2.196045
-0.579834	0.656586	2.127838
-0.525208	0.658264	2.090302
-0.517273	0.671387	2.042694
-0.393219	0.723114	1.999512
0.037842	0.757294	1.941071
0.471802	0.774384	1.914825
0.662231	0.766602	1.843109
0.630798	0.697479	1.765289
0.501556	0.768433	1.658478
0.266724	0.806732	1.596985
-0.110168	0.813141	1.558990
-0.458984	0.774994	1.501617
-0.624847	0.742950	1.502991
-0.647125	0.698242	1.518097
-0.749969	0.715179	1.544342
-0.892944	0.799561	1.599731
-1.148682	0.765076	1.660767
-1.415253	0.734558	1.720276
-1.379395	0.696564	1.755676
-1.095428	0.778961	1.823120
-0.777740	0.831757	1.882019
-0.439606	0.891113	1.935425
-0.118866	0.889130	2.024689
0.130310	0.849152	2.091675
0.307007	0.850220	2.149200
0.205231	0.885773	2.180939
0.066071	0.903015	2.229919
0.142822	0.896912	2.329865
0.294800	0.873260	2.367859
0.394745	0.845947	2.430878
0.424194	0.850372	2.489166
0.483246	0.856018	2.558899
0.427551	0.936890	2.624207
0.158844	0.874176	2.658997
-0.089417	0.879669	2.689667
-0.186615	0.855103	2.718658
-0.226440	0.883789	2.707062
-0.175934	0.924072	2.725677
-0.140228	0.971527	2.724457
-0.176239	0.984650	2.719421
-0.188446	0.933228	2.722931
-0.052795	0.975647	2.726288
0.169525	0.966949	2.705231
0.563812	0.984039	2.646790
0.958099	0.970459	2.593536
1.005096	0.955353	2.556458
0.875397	0.914307	2.509155
0.615082	0.948792	2.451782
0.253143	0.995026	2.415771
-0.113525	0.993805	2.360840
-0.464478	0.943298	2.299957
-0.788727	0.937805	2.261047
-0.958557	0.970154	2.245789
-1.005096	1.013489	2.189941
-1.046295	1.039734	2.149506
-0.979767	1.041870	2.115173
-0.776672	1.013489	2.118378
-0.650635	0.965424	2.079163
-0.537415	1.032257	2.024078
-0.369110	1.084290	2.004852
-0.059509	1.069946	1.955566
0.187531	0.978546	1.903381
0.377045	0.947571	1.864014
0.500183	0.916595	1.875458
0.415497	0.983734	1.864777
0.257111	1.026611	1.830750
0.055847	1.007233	1.830444
-0.239105	0.956879	1.806793
-0.577393	0.901489	1.777191
-0.816345	0.913239	1.770935
-0.849762	0.968323	1.779175
-0.758209	1.022186	1.770630
-0.600739	0.977478	1.772614
-0.419159	0.949707	1.777191
-0.172424	0.882111	1.740265
0.054932	0.899506	1.691132
0.273285	0.934906	1.633301
0.595245	0.885925	1.603699
0.813446	0.847778	1.548004
0.937347	0.785065	1.489716
0.985413	0.789642	1.466370
0.938721	0.806885	1.422424
0.800171	0.857544	1.414337
0.498810	0.754547	1.390228
0.098114	0.732117	1.392365
-0.314331	0.681305	1.389923
-0.608826	0.744781	1.433563
-0.758820	0.733337	1.455383
-0.695801	0.775604	1.479034
-0.517426	0.744476	1.501465
-0.330048	0.682831	1.529083
-0.196381	0.684204	1.545563
-0.050049	0.690155	1.544037
0.093231	0.709991	1.567688
0.155792	0.652771	1.570435
0.198212	0.617981	1.597137
0.203552	0.569305	1.617279
0.224457	0.590973	1.641083
0.232697	0.602875	1.664429
0.200043	0.609894	1.658936
0.036011	0.543671	1.664581
-0.196075	0.503235	1.684418
-0.509796	0.513458	1.667480
-0.782928	0.564423	1.641846
-0.927582	0.590973	1.629181
-0.903168	0.565643	1.623383
-0.715942	0.537872	1.622925
-0.472870	0.443420	1.556091
-0.200500	0.516968	1.517792
0.062408	0.548553	1.445923
0.270844	0.531464	1.392517
0.377045	0.472107	1.313629
0.420990	0.436554	1.253052
0.409698	0.376129	1.183929
0.357971	0.415649	1.118469
0.343170	0.481567	1.073151
0.319977	0.448151	1.023102
0.304260	0.400085	0.970459
0.292053	0.375824	0.916748
0.191650	0.436707	0.897522
0.045319	0.476990	0.875092
-0.159302	0.516815	0.823059
-0.378876	0.467377	0.832214
-0.566101	0.449524	0.814972
-0.699768	0.443420	0.795441
-0.765686	0.489044	0.784454
-0.779419	0.499573	0.785980
-0.746307	0.463409	0.787659
-0.675507	0.439758	0.775604
-0.579681	0.377045	0.772400
-0.395813	0.406342	0.794678
-0.221558	0.439148	0.814056
-0.020905	0.480957	0.838623
0.083618	0.382690	0.817719
0.177307	0.355682	0.823975
0.245361	0.356750	0.798492
0.317535	0.412598	0.809326
0.345306	0.437622	0.791168
0.363770	0.462646	0.778046
0.388794	0.454407	0.789337
0.380859	0.397949	0.764923
0.405426	0.438080	0.716705
0.392914	0.456390	0.669250
0.330048	0.473328	0.667114
0.283356	0.418701	0.612488
0.211945	0.402832	0.567627
-0.006104	0.351105	0.528412
-0.129852	0.373077	0.485687
-0.142059	0.420074	0.439148
-0.070343	0.404358	0.394440
-0.004730	0.373688	0.348358
0.253601	0.341339	0.296021
0.681458	0.398712	0.257263
1.040802	0.464172	0.195923
1.178589	0.482635	0.145416
0.948639	0.459747	0.086212
0.405426	0.413666	0.068817
-0.381012	0.392151	0.021362
-1.267853	0.450745	-0.061188
-1.973572	0.500946	-0.110321
-2.428284	0.477448	-0.144653
-2.637024	0.415649	-0.186920
-2.628326	0.334625	-0.240784
-2.488556	0.313873	-0.280914
-2.060699	0.366364	-0.341797
-1.447601	0.457458	-0.362854
-0.731659	0.363770	-0.426941
0.010529	0.343323	-0.479736
0.759735	0.328522	-0.519104
1.354065	0.389099	-0.562134
1.840820	0.449066	-0.617371
2.065277	0.489044	-0.642090
2.057190	0.460510	-0.679321
1.876373	0.417633	-0.688782
1.501770	0.451202	-0.709534
1.074982	0.485840	-0.747528
0.674744	0.508575	-0.768127
0.302582	0.450134	-0.767822
0.029907	0.422363	-0.735168
-0.183716	0.340424	-0.724945
-0.301971	0.354004	-0.716095
-0.328064	0.408173	-0.670166
-0.313568	0.453339	-0.614624
-0.359650	0.385590	-0.582886
-0.359650	0.381927	-0.517883
-0.380402	0.354767	-0.479736
-0.408783	0.417175	-0.422974
-0.426178	0.469055	-0.355682
-0.354462	0.462341	-0.308228
-0.194702	0.431366	-0.249939
-0.032043	0.360565	-0.198517
0.032349	0.456848	-0.178680
0.111542	0.487976	-0.138550
0.136719	0.507812	-0.114899
0.094757	0.460510	-0.079803
0.012360	0.444489	-0.062408
-0.047150	0.380859	-0.030823
-0.127563	0.411835	-0.011749
-0.210419	0.449524	0.017242
-0.290985	0.472107	0.054474
-0.408020	0.413666	0.064545
-0.593262	0.364838	0.084991
-0.780029	0.412750	0.098877
-0.917969	0.456085	0.111542
-1.007996	0.516357	0.125580
-1.012878	0.486908	0.118256
-0.912933	0.473938	0.134277
-0.762482	0.411377	0.131989
-0.550995	0.492859	0.133362
-0.313873	0.507812	0.124359
-0.095673	0.504456	0.118256
0.089111	0.460205	0.105896
0.231171	0.419617	0.110779
0.291443	0.401917	0.105743
0.315552	0.459442	0.102081
0.318146	0.511475	0.109711
0.271606	0.452118	0.108185
0.218048	0.407410	0.095367
0.192261	0.408478	0.084076
0.175018	0.463257	0.089874
0.151825	0.515594	0.080719
0.134430	0.553436	0.060425
0.142212	0.532532	0.061798
0.171967	0.469513	0.052338
0.193024	0.471039	0.048065
0.233612	0.528412	0.016022
0.264130	0.554657	0.010071
0.256348	0.519562	0.005646
0.245514	0.470276	-0.030518
0.208740	0.399017	-0.039368
0.148163	0.431366	-0.044556
0.059509	0.471039	-0.070190
-0.009155	0.531616	-0.061493
-0.078125	0.452881	-0.080872
-0.167999	0.419464	-0.103149
-0.194397	0.442352	-0.116730
-0.249786	0.496368	-0.123444
-0.235901	0.547943	-0.120239
-0.258636	0.541229	-0.130768
-0.227509	0.512695	-0.122528
-0.189209	0.454559	-0.156250
-0.195160	0.523529	-0.170441
-0.182648	0.540009	-0.203094
-0.177765	0.522614	-0.209961
-0.155182	0.502930	-0.211639
-0.171204	0.458374	-0.227203
-0.183868	0.426331	-0.236206
-0.214081	0.446930	-0.239105
-0.224609	0.515442	-0.234528
-0.224609	0.486908	-0.241241
-0.251465	0.447388	-0.258331
-0.227509	0.422363	-0.281372
-0.186462	0.463409	-0.289764
-0.122681	0.499878	-0.287781
-0.076294	0.526581	-0.312347
-0.022888	0.517273	-0.309143
0.000305	0.477600	-0.310822
-0.000458	0.468597	-0.320892
-0.025024	0.549164	-0.341034
-0.043488	0.532227	-0.331726
-0.084534	0.537567	-0.356293
-0.117798	0.485687	-0.374451
-0.151062	0.419312	-0.373383
-0.157013	0.385132	-0.384216
-0.148468	0.454102	-0.401306
-0.127411	0.522919	-0.390625
-0.140533	0.453644	-0.413666
-0.144196	0.401764	-0.424042
-0.119476	0.397491	-0.429840
-0.101471	0.461578	-0.427551
-0.101318	0.512085	-0.444641
-0.162201	0.544434	-0.448456
-0.131531	0.534210	-0.451660
-0.094147	0.442810	-0.452576
-0.076294	0.482941	-0.465088
-0.063629	0.503235	-0.502625
-0.024414	0.523071	-0.506897
-0.009155	0.511780	-0.514221
-0.006866	0.464935	-0.531158
-0.014954	0.418549	-0.531464
-0.029297	0.442657	-0.550995
-0.008240	0.490875	-0.535278
-0.023499	0.478363	-0.569916
-0.014954	0.383453	-0.565338
-0.032501	0.394287	-0.574951
-0.050659	0.432587	-0.604248
-0.047302	0.474854	-0.605164
-0.055084	0.515594	-0.635681
-0.057526	0.494690	-0.640411
-0.036469	0.491638	-0.633545
-0.018463	0.422821	-0.638885
-0.021667	0.494385	-0.670624
-0.012970	0.518188	-0.676117
-0.012970	0.479126	-0.684052
-0.058441	0.437927	-0.700073
-0.082855	0.405731	-0.714264
-0.120239	0.404968	-0.711365
-0.174408	0.436096	-0.730133
-0.176849	0.487671	-0.735016
-0.217590	0.447998	-0.743256
-0.210419	0.430145	-0.750732
-0.199585	0.388641	-0.760651
-0.184021	0.458069	-0.767059
-0.180206	0.464325	-0.790558
-0.134888	0.527954	-0.792389
-0.095978	0.504608	-0.792847
-0.059052	0.491028	-0.786591
-0.013275	0.467224	-0.793304
0.015869	0.507965	-0.799561
0.021362	0.522003	-0.804901
0.034943	0.495605	-0.807953
0.017548	0.460968	-0.809174
-0.004272	0.419159	-0.802460
-0.060730	0.405579	-0.793762
-0.128937	0.426178	-0.801392
-0.160675	0.457153	-0.809784
-0.140381	0.380402	-0.804901
-0.131683	0.348816	-0.805664
-0.109253	0.360260	-0.803528
-0.045319	0.430756	-0.783386
0.007172	0.452271	-0.780640
0.010529	0.461884	-0.770111
0.037842	0.417023	-0.783539
0.049133	0.376129	-0.754547
-0.010071	0.442047	-0.744324
-0.076599	0.471954	-0.727081
-0.129547	0.482330	-0.717010
-0.193634	0.438995	-0.713959
-0.251923	0.387878	-0.698395
-0.300903	0.346985	-0.675812
-0.292511	0.375519	-0.677948
-0.261688	0.416412	-0.651398
-0.254974	0.429993	-0.642090
-0.236206	0.363617	-0.659027
-0.185547	0.373993	-0.626068
-0.144806	0.391083	-0.594788
-0.112915	0.448456	-0.579987
-0.099335	0.470428	-0.577240
-0.056610	0.474396	-0.556946
-0.048981	0.412903	-0.579376
0.002136	0.366974	-0.549011
0.036621	0.442200	-0.534821
0.060883	0.465240	-0.522003
0.084534	0.468140	-0.515137
0.088501	0.437012	-0.510559
0.065918	0.427094	-0.502319
0.048981	0.404968	-0.483398
0.007172	0.444183	-0.470123
-0.040436	0.518951	-0.461731
-0.089722	0.457306	-0.446167
-0.157166	0.459290	-0.430450
-0.222321	0.397797	-0.440826
-0.257111	0.499725	-0.420837
-0.269165	0.560303	-0.421600
-0.294037	0.617676	-0.412140
-0.303192	0.622559	-0.409546
-0.234833	0.572662	-0.360718
-0.189209	0.571289	-0.397034
-0.160217	0.602264	-0.417633
-0.085449	0.602264	-0.404816
-0.045471	0.572357	-0.386353
-0.003204	0.536957	-0.381165
0.010681	0.476227	-0.398712
-0.000153	0.484924	-0.398102
-0.031128	0.503845	-0.388947
-0.035400	0.545197	-0.387421
-0.049744	0.498199	-0.395203
-0.048065	0.493927	-0.388031
-0.035095	0.503235	-0.392761
-0.035858	0.549469	-0.392761
-0.005341	0.582581	-0.397186
-0.027008	0.625000	-0.388489
-0.028076	0.598602	-0.383911
-0.050507	0.552368	-0.378265
-0.072327	0.592499	-0.395966
-0.108337	0.630798	-0.399628
-0.146332	0.673981	-0.384521
-0.174561	0.599823	-0.393524
-0.211639	0.579376	-0.389252
-0.188599	0.566101	-0.378876
-0.185547	0.605927	-0.399170
-0.155487	0.653839	-0.395203
-0.102844	0.636444	-0.377045
-0.089264	0.545197	-0.383301
-0.041962	0.492249	-0.394135
-0.013123	0.527344	-0.411530
0.022583	0.583344	-0.410767
-0.033875	0.602264	-0.408020
-0.042877	0.584412	-0.402069
-0.032959	0.539093	-0.413055
-0.025940	0.473938	-0.419464
-0.060272	0.568390	-0.420685
-0.033569	0.571136	-0.428925
-0.027771	0.556793	-0.441132
-0.023956	0.482025	-0.457764
-0.058594	0.445557	-0.463715
-0.102234	0.428009	-0.464630
-0.132599	0.454865	-0.471497
-0.174866	0.486908	-0.481415
-0.181427	0.453796	-0.481262
-0.196991	0.428162	-0.487671
-0.154419	0.418701	-0.482025
-0.111847	0.452423	-0.489807
-0.085449	0.483398	-0.503387
-0.050507	0.536194	-0.524139
-0.011902	0.507355	-0.525208
0.019073	0.460052	-0.514069
0.051117	0.447693	-0.529480
0.046997	0.502319	-0.540314
0.030670	0.525513	-0.552521
0.004272	0.474548	-0.558777
-0.009766	0.471344	-0.563354
-0.038757	0.416718	-0.545197
-0.056305	0.435486	-0.553436
-0.092010	0.461273	-0.560913
-0.089111	0.503693	-0.564423
-0.121002	0.404816	-0.580444
-0.075836	0.349426	-0.572052
-0.025482	0.369873	-0.569305
0.024414	0.425415	-0.564575
0.055695	0.450745	-0.561218
0.103302	0.471649	-0.561523
0.119019	0.403595	-0.564117
0.074310	0.316162	-0.557251
0.010986	0.361328	-0.566711
-0.077515	0.408020	-0.559692
-0.181274	0.397949	-0.569916
-0.224304	0.350342	-0.568695
-0.264435	0.329285	-0.566711
-0.276184	0.284882	-0.573883
-0.288849	0.306396	-0.572052
-0.268097	0.316010	-0.574341
-0.214233	0.314178	-0.553894
-0.173798	0.279999	-0.562592
-0.164490	0.267487	-0.558624
-0.147858	0.298767	-0.548859
-0.141907	0.370026	-0.540466
-0.144653	0.408325	-0.533600
-0.131073	0.369110	-0.519257
-0.145569	0.354156	-0.518799
-0.148468	0.308685	-0.525360
-0.145111	0.378113	-0.523834
-0.113068	0.403900	-0.503693
-0.104980	0.359650	-0.513916
-0.094299	0.329742	-0.506592
-0.080566	0.269623	-0.489349
-0.057526	0.296326	-0.480499
-0.047760	0.329437	-0.487213
-0.014801	0.371399	-0.468597
0.019379	0.290680	-0.463257
0.024872	0.263367	-0.454865
0.033264	0.244751	-0.453949
0.051880	0.302429	-0.450439
0.056305	0.339966	-0.425873
0.056610	0.376434	-0.423279
0.035553	0.351868	-0.402832
0.032806	0.292511	-0.398712
0.003662	0.332642	-0.402527
-0.045471	0.362396	-0.390472
-0.069885	0.387573	-0.370331
-0.106354	0.336151	-0.379944
-0.125580	0.303802	-0.350342
-0.137024	0.266571	-0.354004
-0.133820	0.281219	-0.338287
-0.128174	0.292511	-0.340118
-0.096436	0.342865	-0.310059
-0.099030	0.285797	-0.320129
-0.129547	0.246735	-0.308685
-0.160828	0.261230	-0.311127
-0.174866	0.283203	-0.296783
-0.202637	0.340881	-0.289612
-0.243530	0.307159	-0.282440
-0.230103	0.276337	-0.267944
-0.242920	0.212860	-0.240784
-0.205841	0.302887	-0.271149
-0.170746	0.317383	-0.244598
-0.144958	0.302124	-0.257416
-0.123291	0.229797	-0.238495
-0.127869	0.197449	-0.247040
-0.105286	0.125580	-0.248871
-0.114746	0.131683	-0.238342
-0.097351	0.162354	-0.240936
-0.075531	0.120850	-0.235596
-0.082703	0.095978	-0.239410
-0.064087	0.109711	-0.261078
-0.031891	0.194092	-0.249634
-0.032196	0.233917	-0.251923
-0.025787	0.339966	-0.254669
-0.046539	0.405121	-0.266113
-0.051422	0.503540	-0.261383
-0.063782	0.658722	-0.239258
-0.096283	0.919342	-0.261078
-0.126495	1.120148	-0.262146
-0.136108	1.296082	-0.270691
-0.101624	1.528015	-0.270233
-0.096893	1.813812	-0.285797
-0.092010	2.210541	-0.277710
-0.087891	2.646027	-0.288849
-0.041962	2.665100	-0.266418
-0.030670	2.651520	-0.279846
-0.026245	2.653198	-0.282898
-0.048981	2.647095	-0.294647
-0.038757	2.652893	-0.281067
-0.041656	2.651215	-0.286865
-0.039215	2.648010	-0.275879
-0.000916	2.654114	-0.281982
0.021362	2.652893	-0.281830
-0.003967	2.651825	-0.283051
-0.018158	2.640686	-0.282898
0.011444	2.655334	-0.310059
0.027771	2.646637	-0.316620
0.041809	2.648621	-0.294647
0.028381	2.654266	-0.302887
0.010223	2.544861	-0.305328
0.009003	2.079773	-0.296936
-0.000305	1.722260	-0.293884
-0.057220	1.255951	-0.315857
-0.085297	0.753326	-0.310364
-0.123444	0.353241	-0.309753
-0.104828	0.058441	-0.317688
-0.089722	-0.147705	-0.290070
-0.090485	-0.344391	-0.317841
-0.062561	-0.501251	-0.304108
-0.040436	-0.634766	-0.295868
-0.052948	-0.475616	-0.307922
-0.066223	-0.285797	-0.316925
-0.147552	-0.163879	-0.319519
-0.206757	-0.110321	-0.312195
-0.302734	-0.097961	-0.313568
-0.417023	-0.058289	-0.322723
-0.541229	0.081787	-0.292053
-0.683289	0.240021	-0.283356
-0.798340	0.266876	-0.292206
-0.825500	0.274811	-0.296326
-0.763702	0.252991	-0.295563
-0.638733	0.318604	-0.282135
-0.527649	0.357819	-0.293274
-0.409698	0.439148	-0.299988
-0.232239	0.392151	-0.275269
-0.046234	0.390167	-0.255432
0.113068	0.337982	-0.264130
0.228729	0.395203	-0.276184
0.319519	0.390625	-0.268555
0.407410	0.363617	-0.250549
0.404053	0.307465	-0.261383
0.419464	0.259705	-0.268707
0.465851	0.272522	-0.256958
0.605164	0.299683	-0.252380
0.841064	0.345001	-0.234833
1.123352	0.275879	-0.253296
1.293488	0.261688	-0.234833
1.328888	0.261230	-0.227661
1.118622	0.309906	-0.236053
0.686951	0.341034	-0.231628
0.067139	0.391846	-0.215912
-0.625305	0.352631	-0.185242
-1.263580	0.282593	-0.196381
-1.800232	0.319519	-0.204315
-2.143860	0.361481	-0.197906
-2.314758	0.355072	-0.191193
-2.307892	0.292358	-0.174408
-2.080994	0.276489	-0.162964
-1.558838	0.225220	-0.149689
-0.798187	0.266571	-0.159607
0.158539	0.296936	-0.137329
1.307526	0.330963	-0.115967
2.300262	0.272064	-0.109253
2.684021	0.228271	-0.091095
2.612915	0.277405	-0.065308
2.386475	0.341492	-0.053864
2.036438	0.384979	-0.034790
1.727753	0.363312	-0.018158
1.557312	0.316772	-0.012207
1.429443	0.287933	0.009918
0.918579	0.377655	0.011749
0.142212	0.404510	0.014038
-0.881500	0.367584	0.010376
-2.093811	0.316162	0.033569
-2.612457	0.251923	0.032196
-2.625122	0.207367	0.027924
-2.622681	0.251923	0.028229
-2.617035	0.308075	0.043182
-2.555542	0.264587	0.050964
-2.616882	0.252838	0.059357
-2.158356	0.220795	0.075378
-0.637665	0.254517	0.089264
0.901031	0.311127	0.126801
2.357788	0.346680	0.153809
2.685699	0.322113	0.205994
2.678528	0.282288	0.267181
2.683868	0.286865	0.334930
2.679596	0.323792	0.370636
2.680206	0.356140	0.445404
2.204742	0.321960	0.520782
1.103973	0.279083	0.604553
0.264130	0.237579	0.695953
-0.401917	0.235291	0.791931
-0.813446	0.282745	0.908051
-0.953674	0.352325	1.014252
-1.013489	0.252533	1.074829
-0.985718	0.230560	1.194611
-0.924377	0.234375	1.280975
-0.928497	0.302277	1.367340
-0.894470	0.326538	1.455078
-0.861511	0.334930	1.534119
-0.755005	0.302887	1.622620
-0.672150	0.228882	1.686859
-0.749054	0.318756	1.738586
-0.817566	0.365753	1.782227
-0.935669	0.367584	1.827545
-1.137543	0.294952	1.883698
-1.221466	0.247345	1.929932
-1.084442	0.236816	1.983032
-0.853119	0.254974	2.008667
-0.491638	0.285339	2.048035
0.022430	0.302124	2.086182
0.586395	0.241699	2.073822
1.081696	0.214386	2.074432
1.389465	0.276794	2.089081
1.332092	0.302277	2.076416
1.089630	0.344086	2.076721
0.597382	0.353088	2.047882
0.138092	0.336456	2.041626
-0.108490	0.279083	2.010956
-0.407867	0.315399	1.944733
-0.627136	0.357513	1.917114
-0.624847	0.325775	1.877441
-0.467834	0.265961	1.846466
-0.342560	0.241547	1.820984
0.006561	0.240784	1.804657
0.412598	0.292664	1.776581
0.731659	0.361023	1.747589
0.869598	0.299683	1.734009
0.800629	0.258484	1.723022
0.640564	0.255890	1.724701
0.296173	0.316467	1.716919
-0.271149	0.356903	1.710052
-0.780029	0.385590	1.730957
-0.970001	0.357819	1.749878
-1.054077	0.316162	1.761932
-1.067200	0.299683	1.714172
-0.814362	0.384521	1.705780
-0.488434	0.388336	1.675720
-0.294037	0.314941	1.662445
-0.271454	0.277252	1.646271
-0.375977	0.218201	1.636963
-0.416107	0.265961	1.591644
-0.151672	0.318756	1.601410
0.350800	0.363617	1.533966
0.912170	0.279694	1.465759
1.365204	0.226746	1.445770
1.472015	0.242615	1.357574
1.276550	0.329285	1.333008
0.750580	0.382690	1.243591
0.007935	0.398407	1.154938
-0.567322	0.335541	1.084137
-0.704498	0.258331	0.984192
-0.602264	0.337372	0.904388
-0.348206	0.384979	0.827332
-0.090637	0.379944	0.786438
-0.033722	0.324707	0.762329
-0.147705	0.302429	0.731812
-0.307159	0.252991	0.751343
-0.334930	0.325623	0.794525
-0.242462	0.364227	0.836182
-0.124512	0.348969	0.879669
-0.114899	0.285187	0.898285
-0.336456	0.277252	0.965881
-0.688477	0.306549	1.039124
-1.060028	0.364380	1.139374
-1.055298	0.430908	1.197052
-0.870667	0.405731	1.279144
-0.722198	0.370178	1.392975
-0.363617	0.342560	1.465454
-0.197296	0.423889	1.520996
-0.348206	0.434723	1.571503
-0.666809	0.399475	1.647339
-1.048126	0.345459	1.706238
-1.011810	0.332642	1.739197
-0.731659	0.337830	1.777496
-0.230408	0.373077	1.823273
0.291290	0.424194	1.861725
0.854187	0.360565	1.894226
1.292267	0.314484	1.930542
1.290131	0.317078	1.938477
1.112061	0.391083	1.961060
1.011963	0.449371	1.984863
0.971375	0.499420	1.975403
0.946960	0.463562	1.968231
0.912170	0.442200	1.961060
0.872498	0.475159	1.936188
0.698547	0.502319	1.878204
0.382080	0.513458	1.833496
-0.192108	0.482635	1.787567
-0.634003	0.439453	1.723938
-0.858612	0.388031	1.629333
-0.896301	0.436249	1.548920
-0.766754	0.491943	1.498566
-0.526581	0.520477	1.362762
-0.217285	0.443878	1.264191
0.090179	0.430145	1.186829
0.462341	0.465851	1.096497
0.462189	0.478363	1.035004
0.348053	0.540161	1.021271
0.316162	0.573578	1.038513
0.206604	0.556183	1.054993
-0.243530	0.481415	1.066895
-0.939331	0.546112	1.113129
-1.593933	0.568542	1.123352
-1.962433	0.560150	1.182404
-1.987305	0.545502	1.261749
-1.742554	0.535126	1.341553
-1.244202	0.484772	1.407928
-0.619812	0.493622	1.467133
-0.039825	0.574646	1.574402
0.544739	0.545044	1.636505
0.939789	0.516052	1.713562
1.012878	0.504761	1.786499
0.894165	0.570526	1.833954
0.882111	0.624390	1.920319
0.798340	0.669861	1.963959
0.587006	0.637817	2.016449
0.428162	0.594940	2.050629
0.080414	0.591736	2.082520
-0.263519	0.698395	2.107086
-0.449982	0.708160	2.104034
-0.431061	0.657806	2.078552
-0.296173	0.611420	2.047729
-0.009155	0.580444	1.990509
0.251160	0.554504	1.921387
0.415039	0.618591	1.897736
0.531464	0.725861	1.860046
0.712738	0.662537	1.800385
0.871887	0.622406	1.740723
0.855103	0.614319	1.679687
0.556793	0.658722	1.613922
0.139771	0.687103	1.549988
-0.163879	0.737305	1.504211
-0.400238	0.747528	1.488037
-0.642242	0.681458	1.452332
-0.636444	0.723114	1.424255
-0.409698	0.754852	1.416168
-0.214844	0.774994	1.473541
-0.347137	0.727844	1.481323
-0.619965	0.687866	1.514893
-0.786285	0.659637	1.582031
-0.927277	0.669556	1.605530
-1.100311	0.684357	1.665955
-1.210785	0.711975	1.717682
-1.159821	0.661316	1.748352
-0.949249	0.649414	1.761932
-0.687103	0.642090	1.755524
-0.457458	0.668945	1.744537
-0.141449	0.735931	1.751404
0.195160	0.691681	1.713104
0.596619	0.639191	1.706696
0.886536	0.574493	1.680908
0.941772	0.644073	1.639252
0.878296	0.673065	1.591187
0.778656	0.661469	1.553345
0.673065	0.591888	1.513367
0.609283	0.565338	1.483765
0.585785	0.513000	1.450195
0.567169	0.542755	1.411591
0.523682	0.578613	1.413269
0.469055	0.505219	1.339722
0.258942	0.420990	1.292725
-0.045319	0.380402	1.280212
-0.414581	0.414124	1.236877
-0.721130	0.426636	1.229248
-0.939026	0.473328	1.214752
-1.081543	0.432892	1.188354
-1.030884	0.387421	1.202087
-0.860901	0.372467	1.203461
-0.608673	0.409088	1.186676
-0.249329	0.397186	1.204987
0.075684	0.356903	1.215973
0.277863	0.305328	1.258087
0.225983	0.239105	1.257019
0.063934	0.232849	1.283722
-0.092773	0.263062	1.268005
-0.208893	0.307922	1.273346
-0.259399	0.216675	1.285400
-0.260162	0.172272	1.262817
-0.227814	0.165863	1.207123
-0.162201	0.208130	1.189423
-0.115509	0.233765	1.154633
-0.118561	0.266571	1.100922
-0.153351	0.223083	1.045227
-0.167999	0.134277	1.005859
-0.213776	0.173035	0.923615
-0.236816	0.195007	0.839691
-0.189056	0.212708	0.804749
-0.110168	0.165558	0.746155
0.022736	0.125427	0.702057
0.188293	0.055084	0.654907
0.331268	0.063629	0.604858
0.459747	0.090485	0.620270
0.499725	0.082550	0.581665
0.500031	0.016632	0.559387
0.464630	0.001984	0.571594
0.457306	0.052948	0.577850
0.393066	0.082703	0.599213
0.297394	0.116425	0.619965
0.127106	0.082397	0.632324
-0.051727	0.045319	0.673828
-0.296478	-0.013275	0.709991
-0.549927	0.063324	0.711670
-0.703583	0.107727	0.733795
-0.810394	0.065155	0.761414
-0.835266	0.017242	0.792084
-0.804749	-0.016327	0.803375
-0.705109	-0.058899	0.822601
-0.590973	-0.010834	0.807648
-0.413666	0.022583	0.827484
-0.314026	-0.035553	0.824432
-0.233002	-0.076447	0.782623
-0.164337	-0.087738	0.783997
-0.098267	-0.015717	0.779877
-0.082855	0.006561	0.735474
-0.056763	0.050049	0.699615
0.014801	0.040894	0.655518
0.109711	-0.014343	0.644379
0.178070	-0.048676	0.568695
0.267487	0.001678	0.532990
0.373993	0.047607	0.472565
0.416565	0.010834	0.411835
0.391846	-0.058441	0.343781
0.328369	-0.125427	0.283356
0.275116	-0.099792	0.224304
0.282288	-0.054474	0.185242
0.225220	-0.020599	0.118713
0.140228	-0.092926	0.085144
0.057068	-0.105438	0.039062
-0.119934	-0.102081	-0.019989
-0.264435	-0.049438	-0.068054
-0.225983	-0.008087	-0.102081
-0.208893	0.018158	-0.145569
-0.219879	-0.013580	-0.173492
-0.183258	-0.079346	-0.196686
0.050964	-0.015564	-0.245972
0.420685	0.025177	-0.282745
0.742798	0.015411	-0.315399
0.765991	-0.031128	-0.351715
0.427399	-0.048370	-0.368347
-0.190735	-0.091400	-0.397034
-0.906677	-0.074310	-0.444794
-1.508484	-0.056610	-0.463715
-2.006683	-0.064545	-0.484772
-2.406616	-0.110168	-0.522614
-2.544250	-0.138702	-0.538788
-2.386017	-0.100098	-0.563202
-1.921844	-0.045319	-0.584106
-1.228027	0.000305	-0.604858
-0.368347	0.014496	-0.624847
0.478973	-0.030060	-0.625000
1.158447	-0.095673	-0.666962
1.679382	-0.039825	-0.702057
2.059326	-0.004883	-0.720673
2.285614	-0.021667	-0.727234
2.309723	-0.106049	-0.773621
2.113342	-0.145721	-0.784760
1.761017	-0.164642	-0.796661
1.342773	-0.097351	-0.802917
0.949554	-0.057831	-0.802460
0.615692	-0.104218	-0.799866
0.273743	-0.124207	-0.793610
-0.070343	-0.178528	-0.798492
-0.418854	-0.110321	-0.747375
-0.745850	-0.069885	-0.724792
-1.023865	-0.028229	-0.688934
-1.205597	-0.057220	-0.651245
-1.253510	-0.093994	-0.584564
-1.288757	-0.084381	-0.576630
-1.225739	-0.048370	-0.531464
-1.073914	-0.005188	-0.482025
-0.916595	-0.048981	-0.468445
-0.687561	-0.091400	-0.431824
-0.506134	-0.133362	-0.410767
-0.313263	-0.106049	-0.394897
-0.148773	-0.098877	-0.363770
0.002899	-0.070190	-0.349274
0.063629	-0.144806	-0.339355
0.102997	-0.150299	-0.327606
0.118561	-0.147400	-0.331421
0.070953	-0.115051	-0.328064
-0.003052	-0.069885	-0.318298
-0.092010	-0.042419	-0.316620
-0.186005	-0.086212	-0.305634
-0.260925	-0.147705	-0.326233
-0.357208	-0.095367	-0.342865
-0.348053	-0.048981	-0.335388
-0.329895	-0.024261	-0.353699
-0.266876	-0.068665	-0.388184
-0.137939	-0.090942	-0.375214
-0.015717	-0.164642	-0.415497
0.121918	-0.143280	-0.437317
0.243073	-0.121918	-0.449982
0.304718	-0.159760	-0.464630
0.362091	-0.178986	-0.493927
0.379486	-0.195312	-0.502319
0.369568	-0.176392	-0.525665
0.318298	-0.120392	-0.530548
0.258026	-0.067444	-0.545349
0.192719	-0.110016	-0.554199
0.131226	-0.139923	-0.558777
0.070343	-0.161285	-0.547028
0.013885	-0.098114	-0.582123
-0.039978	-0.097046	-0.605469
-0.086212	-0.138092	-0.599365
-0.138245	-0.171814	-0.606232
-0.191803	-0.223389	-0.606079
-0.214539	-0.223694	-0.603943
-0.251465	-0.191803	-0.603333
-0.259552	-0.143585	-0.608215
-0.238342	-0.216675	-0.588989
-0.238647	-0.245056	-0.598145
-0.212555	-0.237885	-0.595551
-0.157623	-0.172577	-0.578918
-0.124817	-0.139160	-0.583496
-0.068512	-0.094147	-0.564423
-0.051727	-0.144653	-0.566559
-0.027008	-0.196228	-0.560455
-0.039825	-0.169525	-0.560760
-0.035706	-0.138092	-0.566254
-0.054321	-0.104218	-0.546112
-0.076447	-0.161743	-0.546570
-0.104218	-0.186768	-0.538025
-0.151672	-0.262604	-0.554352
-0.181732	-0.227814	-0.537415
-0.207672	-0.185547	-0.513000
-0.240326	-0.137634	-0.504150
-0.256653	-0.179901	-0.491486
-0.260162	-0.231323	-0.487366
-0.266876	-0.240021	-0.488892
-0.247498	-0.179443	-0.479431
-0.223694	-0.133362	-0.461578
-0.209198	-0.126343	-0.457001
-0.199280	-0.163116	-0.430298
-0.168152	-0.246124	-0.419922
-0.168304	-0.193024	-0.422668
-0.133514	-0.148315	-0.377655
-0.093079	-0.153503	-0.386658
-0.062714	-0.191498	-0.359955
-0.055084	-0.233307	-0.358429
-0.050812	-0.288544	-0.378113
-0.038300	-0.256805	-0.359955
-0.025177	-0.182037	-0.348969
-0.007477	-0.200348	-0.320435
-0.009613	-0.257568	-0.318756
-0.013733	-0.267334	-0.298615
-0.017548	-0.217590	-0.275269
-0.010223	-0.201263	-0.278931
-0.021057	-0.167694	-0.280304
0.014343	-0.147858	-0.247498
0.041046	-0.172272	-0.228119
0.048676	-0.214386	-0.224915
0.043945	-0.160828	-0.223999
0.017090	-0.140991	-0.218201
-0.010681	-0.171204	-0.219727
-0.037994	-0.222168	-0.213776
-0.098419	-0.273132	-0.209198
-0.135193	-0.268402	-0.196991
-0.180054	-0.246429	-0.180664
-0.180664	-0.184631	-0.178375
-0.190582	-0.260925	-0.171661
-0.195007	-0.291290	-0.158844
-0.163116	-0.289612	-0.142365
-0.132599	-0.233154	-0.131836
-0.093384	-0.187531	-0.124359
-0.085449	-0.147247	-0.113068
-0.083618	-0.186005	-0.106812
-0.067139	-0.259247	-0.112915
-0.068970	-0.227661	-0.091858
-0.065002	-0.175171	-0.091705
-0.053864	-0.133209	-0.083923
-0.070801	-0.180054	-0.072021
-0.065460	-0.211487	-0.056458
-0.101013	-0.274658	-0.061951
-0.113220	-0.259552	-0.065613
-0.124664	-0.214691	-0.046692
-0.119629	-0.180511	-0.035706
-0.134583	-0.234375	-0.033875
-0.149841	-0.264130	-0.030670
-0.119476	-0.237579	-0.017700
-0.123291	-0.205841	-0.014496
-0.101013	-0.189514	-0.007935
-0.081787	-0.171509	-0.002594
-0.031433	-0.190887	0.035553
-0.006714	-0.258484	0.031738
-0.037231	-0.196991	0.010223
-0.019073	-0.171356	0.015259
-0.010681	-0.163269	0.027008
-0.012054	-0.204926	0.032196
-0.047302	-0.242462	0.038300
-0.075684	-0.275879	0.050812
-0.093079	-0.240021	0.061493
-0.086517	-0.168915	0.077209
-0.114288	-0.212097	0.080719
-0.159302	-0.258636	0.081177
-0.172882	-0.276337	0.096283
-0.172882	-0.229797	0.105896
-0.168915	-0.197144	0.109253
-0.172424	-0.173950	0.106812
-0.141602	-0.196686	0.121155
-0.092316	-0.214386	0.131226
-0.053558	-0.219727	0.130463
-0.013123	-0.160370	0.131378
0.012817	-0.150909	0.131226
0.026550	-0.191040	0.143127
0.045471	-0.224304	0.142212
0.015869	-0.291443	0.157013
0.004120	-0.263519	0.141602
-0.026550	-0.220642	0.150909
-0.040283	-0.176849	0.172882
-0.084229	-0.264893	0.172424
-0.121155	-0.308228	0.166168
-0.150909	-0.282288	0.151215
-0.141602	-0.225372	0.148773
-0.141144	-0.199280	0.163422
-0.149536	-0.183868	0.161133
-0.133514	-0.217133	0.170441
-0.108337	-0.275726	0.182800
-0.129852	-0.237579	0.166779
-0.110168	-0.191650	0.155487
-0.103455	-0.181885	0.162201
-0.094299	-0.240631	0.164795
-0.092926	-0.289459	0.158386
-0.076904	-0.330200	0.165558
-0.091400	-0.316010	0.148773
-0.081787	-0.260925	0.151672
-0.078735	-0.235748	0.151215
-0.112000	-0.307617	0.134888
-0.114746	-0.346069	0.125427
-0.110321	-0.315857	0.115814
-0.115051	-0.289307	0.116730
-0.118256	-0.247192	0.106201
-0.092621	-0.249176	0.097198
-0.053558	-0.288696	0.108032
-0.039215	-0.370026	0.089111
-0.022430	-0.294037	0.063171
0.016022	-0.235901	0.063629
0.029297	-0.229340	0.062103
0.032806	-0.299072	0.048828
0.031281	-0.360107	0.032654
0.030518	-0.388184	0.024414
0.026093	-0.339203	0.035400
0.003052	-0.285187	0.022430
-0.038452	-0.334930	0.007019
-0.077057	-0.337524	0.012207
-0.135040	-0.348816	0.006409
-0.160980	-0.302887	-0.011597
-0.169067	-0.280151	-0.018616
-0.170593	-0.257416	-0.019989
-0.154724	-0.288544	-0.026855
-0.137024	-0.339050	-0.026398
-0.128021	-0.353241	-0.038147
-0.128784	-0.289764	-0.045013
-0.117035	-0.273743	-0.056763
-0.122070	-0.324249	-0.080566
-0.129547	-0.365448	-0.079193
-0.124664	-0.398560	-0.078583
-0.106964	-0.398254	-0.087891
-0.106659	-0.360107	-0.090942
-0.080261	-0.295258	-0.098419
-0.067139	-0.354462	-0.102539
-0.043335	-0.383301	-0.114899
-0.027313	-0.392151	-0.127563
-0.003662	-0.311432	-0.111847
-0.010834	-0.278015	-0.124207
-0.023041	-0.244751	-0.111694
-0.036011	-0.275421	-0.117950
-0.059204	-0.332489	-0.116882
-0.081024	-0.284119	-0.125732
-0.101318	-0.267639	-0.142822
-0.144196	-0.285034	-0.146179
-0.155792	-0.324707	-0.152130
-0.165253	-0.356903	-0.163574
-0.186462	-0.403900	-0.167236
-0.179138	-0.370941	-0.167999
-0.170135	-0.342560	-0.171051
-0.134888	-0.332947	-0.162201
-0.109711	-0.360413	-0.183105
-0.086212	-0.396881	-0.197144
-0.038300	-0.353699	-0.198517
-0.019989	-0.309448	-0.196228
0.004578	-0.237885	-0.209961
0.007172	-0.259094	-0.226593
0.015717	-0.281525	-0.225372
0.003357	-0.329895	-0.222015
-0.050812	-0.258484	-0.239410
-0.085144	-0.214233	-0.251465
-0.130310	-0.231476	-0.266724
-0.164185	-0.257874	-0.267639
-0.187073	-0.266571	-0.291595
-0.185089	-0.279999	-0.288849
-0.209656	-0.249481	-0.311432
-0.205841	-0.193634	-0.317841
-0.188751	-0.231934	-0.327911
-0.202637	-0.263977	-0.342407
-0.191193	-0.268555	-0.350647
-0.154572	-0.221710	-0.353088
-0.121155	-0.201721	-0.353394
-0.101776	-0.192719	-0.384216
-0.058594	-0.205383	-0.384674
-0.046387	-0.233917	-0.380096
-0.040283	-0.221558	-0.401001
-0.041962	-0.158234	-0.414734
-0.040436	-0.143585	-0.416718
-0.048523	-0.169983	-0.427399
-0.063782	-0.228119	-0.445862
-0.048676	-0.272369	-0.443115
-0.046844	-0.263367	-0.462341
-0.035400	-0.225220	-0.454407
-0.031586	-0.171661	-0.457611
-0.052185	-0.250549	-0.474396
-0.057373	-0.276489	-0.486755
-0.062561	-0.258331	-0.488434
-0.071106	-0.221252	-0.473785
-0.055847	-0.176697	-0.479431
-0.070648	-0.149231	-0.481873
-0.063171	-0.182953	-0.485687
-0.057983	-0.257416	-0.465546
-0.074158	-0.184937	-0.473175
-0.086670	-0.151367	-0.471191
-0.114288	-0.176239	-0.472565
-0.140076	-0.251617	-0.477753
-0.144806	-0.290070	-0.470276
-0.135498	-0.346985	-0.472260
-0.131073	-0.309601	-0.477600
-0.141144	-0.288696	-0.475311
-0.134430	-0.292969	-0.461578
-0.143585	-0.366364	-0.476837
-0.156097	-0.392609	-0.464325
-0.173950	-0.362701	-0.485535
-0.166168	-0.325317	-0.468140
-0.174408	-0.276489	-0.470734
-0.176849	-0.278015	-0.472717
-0.167999	-0.323029	-0.472412
-0.155640	-0.368958	-0.467834
-0.140533	-0.292816	-0.451202
-0.109253	-0.311737	-0.480957
-0.090637	-0.354004	-0.495911
-0.052338	-0.389252	-0.486755
-0.030670	-0.403900	-0.503693
0.000153	-0.422058	-0.496063
0.021362	-0.403748	-0.505219
0.060883	-0.330963	-0.489960
0.070801	-0.408936	-0.499268
0.068512	-0.438232	-0.510864
0.049438	-0.463409	-0.520630
0.057831	-0.399323	-0.522766
0.039673	-0.377502	-0.540161
0.009918	-0.324554	-0.546570
-0.020447	-0.362854	-0.539246
-0.043182	-0.416107	-0.536041
-0.073853	-0.410614	-0.547791
-0.115509	-0.375214	-0.551758
-0.135498	-0.343018	-0.547028
-0.150757	-0.418243	-0.550079
-0.179291	-0.466919	-0.558929
-0.191498	-0.518646	-0.556030
-0.205841	-0.487976	-0.554962
-0.220184	-0.475006	-0.559845
-0.210571	-0.451660	-0.552368
-0.212555	-0.519104	-0.550079
-0.202942	-0.552979	-0.560455
-0.178223	-0.546417	-0.560608
-0.142212	-0.488739	-0.546875
-0.106354	-0.438843	-0.548248
-0.076752	-0.418396	-0.535889
-0.074463	-0.467987	-0.553741
-0.033569	-0.524139	-0.534973
-0.060425	-0.462494	-0.540009
-0.044861	-0.432587	-0.539093
-0.030823	-0.428772	-0.509033
-0.032806	-0.467377	-0.525360
-0.036316	-0.509186	-0.525360
-0.024414	-0.567780	-0.514832
-0.046387	-0.539398	-0.525970
-0.036163	-0.475616	-0.498962
-0.043488	-0.511169	-0.488586
-0.108795	-0.551147	-0.492859
-0.112762	-0.576630	-0.496674
-0.133209	-0.521088	-0.463562
-0.159760	-0.497894	-0.473328
-0.191498	-0.462341	-0.461426
-0.176697	-0.472565	-0.438385
-0.180817	-0.513000	-0.439758
-0.182800	-0.539246	-0.435944
-0.165253	-0.464325	-0.425720
-0.133820	-0.442963	-0.411377
-0.116882	-0.487213	-0.411835
-0.090942	-0.516968	-0.399017
-0.072174	-0.575256	-0.395355
-0.038605	-0.591888	-0.386200
-0.028381	-0.545807	-0.369568
-0.005646	-0.481567	-0.371094
-0.000610	-0.549164	-0.350342
0.015564	-0.551147	-0.338898
-0.003967	-0.585480	-0.332336
-0.009766	-0.506134	-0.316162
-0.033875	-0.503540	-0.308228
-0.060577	-0.489655	-0.301361
-0.075836	-0.510559	-0.285950
-0.100861	-0.573730	-0.282135
-0.137787	-0.528259	-0.287018
-0.155792	-0.479126	-0.269470
-0.169678	-0.475769	-0.250702
-0.187988	-0.540771	-0.259247
-0.217896	-0.576019	-0.247803
-0.216522	-0.636139	-0.259094
-0.203094	-0.632477	-0.260925
-0.205688	-0.599213	-0.260010
-0.153046	-0.567169	-0.235901
-0.131073	-0.610199	-0.249481
-0.122070	-0.654297	-0.270691
-0.099945	-0.671387	-0.259857
-0.076447	-0.645599	-0.248108
-0.067596	-0.594177	-0.242462
-0.069122	-0.615997	-0.256653
-0.074005	-0.671539	-0.251465
-0.063324	-0.775452	-0.235138
-0.083160	-0.696869	-0.255127
-0.064545	-0.637512	-0.254822
-0.080872	-0.657654	-0.254822
-0.085144	-0.688782	-0.266876
-0.070190	-0.704956	-0.260010
-0.072479	-0.655823	-0.284271
-0.056458	-0.526581	-0.282593
-0.041504	-0.323334	-0.275269
-0.031128	-0.187378	-0.290527
0.004730	-0.023956	-0.287933
0.018005	0.153503	-0.290070
0.035858	0.453339	-0.289307
0.058289	0.830994	-0.279388
0.066376	1.257477	-0.289154
0.067444	1.606140	-0.289764
0.055237	2.043152	-0.280762
0.024872	2.447205	-0.290070
-0.033569	2.640228	-0.302582
-0.061188	2.653961	-0.291443
-0.093536	2.647247	-0.292969
-0.153198	2.645721	-0.290375
-0.177307	2.650909	-0.292969
-0.192413	2.649689	-0.297852
-0.181732	2.654419	-0.276642
-0.153961	2.651672	-0.269012
-0.067444	2.650299	-0.296936
-0.051422	2.644958	-0.314178
-0.056610	2.656403	-0.300598
-0.018311	2.651978	-0.308990
0.001373	2.345123	-0.304718
0.052032	1.899872	-0.290070
0.053864	1.355438	-0.271301
0.034943	0.885162	-0.271759
0.009003	0.574341	-0.281982
-0.027618	0.191803	-0.270691
-0.039673	-0.290680	-0.287018
-0.044250	-0.733185	-0.284729
-0.081177	-1.017151	-0.285339
-0.132294	-1.277008	-0.270844
-0.186005	-1.379700	-0.294952
-0.200348	-1.443024	-0.286865
-0.227203	-1.427612	-0.265961
-0.282745	-1.337891	-0.273590
-0.328979	-1.206512	-0.262756
-0.392456	-1.086578	-0.274658
-0.461731	-0.955963	-0.253143
-0.573730	-0.843811	-0.264893
-0.682373	-0.761414	-0.250397
-0.778198	-0.681763	-0.237427
-0.822601	-0.690002	-0.239410
-0.840759	-0.583496	-0.251160
-0.756073	-0.536804	-0.233917
-0.613708	-0.528870	-0.240479
-0.467682	-0.552979	-0.243835
-0.267181	-0.577393	-0.249939
-0.075378	-0.597076	-0.233307
0.114288	-0.547943	-0.232849
